Elapsed Time,EMG1,EMG2,EMG3,BioRadio Event,
00:00:00,0.00292396545410156,0.0016021728515625,0.000921249389648438,0,
00:00:00.004,0.00293540954589844,0.00162506103515625,0.000904083251953125,0,
00:00:00.008,0.0029296875,0.00162506103515625,0.00089263916015625,0,
00:00:00.012,0.00294113159179688,0.00161361694335938,0.000909805297851563,0,
00:00:00.016,0.00296401977539063,0.00167083740234375,0.000904083251953125,0,
00:00:00.02,0.00300407409667969,0.00179672241210938,0.000818252563476563,0,
00:00:00.024,0.00293540954589844,0.00163078308105469,0.000812530517578125,0,
00:00:00.028,0.0028839111328125,0.00148200988769531,0.000995635986328125,0,
00:00:00.032,0.00292396545410156,0.00155067443847656,0.0009613037109375,0,
00:00:00.036,0.0029296875,0.00160789489746094,0.00093841552734375,0,
00:00:00.04,0.00293540954589844,0.00163078308105469,0.000909805297851563,0,
00:00:00.044,0.0029754638671875,0.00167655944824219,0.000921249389648438,0,
00:00:00.048,0.00300407409667969,0.00174522399902344,0.000829696655273438,0,
00:00:00.052,0.00291252136230469,0.00155067443847656,0.000898361206054688,0,
00:00:00.056,0.00291252136230469,0.00153923034667969,0.000978469848632813,0,
00:00:00.06,0.00294113159179688,0.00158500671386719,0.000944137573242188,0,
00:00:00.064,0.00294113159179688,0.0016021728515625,0.000904083251953125,0,
00:00:00.068,0.00293540954589844,0.00159645080566406,0.000921249389648438,0,
00:00:00.072,0.00294685363769531,0.00160789489746094,0.00091552734375,0,
00:00:00.076,0.00296401977539063,0.00164222717285156,0.000898361206054688,0,
00:00:00.08,0.00296974182128906,0.00167083740234375,0.000864028930664063,0,
00:00:00.084,0.00294113159179688,0.00162506103515625,0.000864028930664063,0,
00:00:00.088,0.00292396545410156,0.00153923034667969,0.000972747802734375,0,
00:00:00.092,0.00293540954589844,0.00159072875976563,0.000949859619140625,0,
00:00:00.096,0.00295829772949219,0.00164794921875,0.000926971435546875,0,
00:00:00.1,0.00295257568359375,0.00159072875976563,0.00089263916015625,0,
00:00:00.104,0.00293540954589844,0.00156784057617188,0.000904083251953125,0,
00:00:00.108,0.00293540954589844,0.00159072875976563,0.000926971435546875,0,
00:00:00.112,0.00294113159179688,0.00161361694335938,0.000898361206054688,0,
00:00:00.116,0.00295257568359375,0.00165939331054688,0.000875473022460938,0,
00:00:00.12,0.00295257568359375,0.00161933898925781,0.000909805297851563,0,
00:00:00.124,0.00295257568359375,0.00159072875976563,0.000909805297851563,0,
00:00:00.128,0.00294685363769531,0.00158500671386719,0.000921249389648438,0,
00:00:00.132,0.00294113159179688,0.0016021728515625,0.000904083251953125,0,
00:00:00.136,0.00294113159179688,0.00159645080566406,0.000909805297851563,0,
00:00:00.14,0.00294685363769531,0.00161361694335938,0.000909805297851563,0,
00:00:00.144,0.00296974182128906,0.00166511535644531,0.000898361206054688,0,
00:00:00.148,0.00299263000488281,0.00172233581542969,0.000818252563476563,0,
00:00:00.152,0.0029296875,0.00157356262207031,0.0008697509765625,0,
00:00:00.156,0.00290107727050781,0.00150489807128906,0.00098419189453125,0,
00:00:00.16,0.0029296875,0.00155067443847656,0.000944137573242188,0,
00:00:00.164,0.00294113159179688,0.00159645080566406,0.00091552734375,0,
00:00:00.168,0.00294113159179688,0.00159072875976563,0.00091552734375,0,
00:00:00.172,0.00294685363769531,0.0016021728515625,0.000909805297851563,0,
00:00:00.176,0.00294685363769531,0.00160789489746094,0.000898361206054688,0,
00:00:00.18,0.00295829772949219,0.00164222717285156,0.000875473022460938,0,
00:00:00.184,0.00298690795898438,0.00165367126464844,0.000898361206054688,0,
00:00:00.188,0.0029754638671875,0.00170516967773438,0.000829696655273438,0,
00:00:00.192,0.00291824340820313,0.00157356262207031,0.00089263916015625,0,
00:00:00.196,0.00289535522460938,0.0015106201171875,0.00093841552734375,0,
00:00:00.2,0.0029296875,0.00156784057617188,0.000898361206054688,0,
00:00:00.204,0.00295257568359375,0.0016021728515625,0.00089263916015625,0,
00:00:00.208,0.0029296875,0.00157928466796875,0.000949859619140625,0,
00:00:00.212,0.00294685363769531,0.00162506103515625,0.000926971435546875,0,
00:00:00.216,0.00298690795898438,0.00173377990722656,0.000886917114257813,0,
00:00:00.22,0.00296974182128906,0.00167083740234375,0.000841140747070313,0,
00:00:00.224,0.00291824340820313,0.00150489807128906,0.000875473022460938,0,
00:00:00.228,0.00290679931640625,0.00151634216308594,0.000955581665039063,0,
00:00:00.232,0.00291252136230469,0.00156211853027344,0.000932693481445313,0,
00:00:00.236,0.0029296875,0.00159645080566406,0.000898361206054688,0,
00:00:00.24,0.00294685363769531,0.0016021728515625,0.00089263916015625,0,
00:00:00.244,0.00294113159179688,0.00159072875976563,0.000904083251953125,0,
00:00:00.248,0.00294113159179688,0.00159645080566406,0.000904083251953125,0,
00:00:00.252,0.00295829772949219,0.00163650512695313,0.000886917114257813,0,
00:00:00.256,0.00302696228027344,0.00177955627441406,0.000829696655273438,0,
00:00:00.26,0.00291824340820313,0.00157928466796875,0.000789642333984375,0,
00:00:00.264,0.00289535522460938,0.00146484375,0.00093841552734375,0,
00:00:00.268,0.00293540954589844,0.00156211853027344,0.000886917114257813,0,
00:00:00.272,0.00294113159179688,0.00158500671386719,0.000944137573242188,0,
00:00:00.276,0.00293540954589844,0.00157928466796875,0.000926971435546875,0,
00:00:00.28,0.00293540954589844,0.00157356262207031,0.00091552734375,0,
00:00:00.284,0.00294113159179688,0.00158500671386719,0.000909805297851563,0,
00:00:00.288,0.00294113159179688,0.00158500671386719,0.000898361206054688,0,
00:00:00.292,0.00294113159179688,0.00158500671386719,0.000886917114257813,0,
00:00:00.296,0.00295829772949219,0.00161361694335938,0.000886917114257813,0,
00:00:00.3,0.00298118591308594,0.00164794921875,0.0008697509765625,0,
00:00:00.304,0.00293540954589844,0.00160789489746094,0.000852584838867188,0,
00:00:00.308,0.00294685363769531,0.001556396484375,0.0008697509765625,0,
00:00:00.312,0.00294685363769531,0.00158500671386719,0.000858306884765625,0,
00:00:00.316,0.00295257568359375,0.00162506103515625,0.000875473022460938,0,
00:00:00.32,0.00294685363769531,0.00159645080566406,0.000921249389648438,0,
00:00:00.324,0.00294685363769531,0.00157928466796875,0.000932693481445313,0,
00:00:00.328,0.00293540954589844,0.001556396484375,0.000932693481445313,0,
00:00:00.332,0.00294685363769531,0.00158500671386719,0.000898361206054688,0,
00:00:00.336,0.00294685363769531,0.00157356262207031,0.00089263916015625,0,
00:00:00.34,0.00294685363769531,0.00156784057617188,0.00089263916015625,0,
00:00:00.344,0.00299835205078125,0.00165367126464844,0.000881195068359375,0,
00:00:00.348,0.00300979614257813,0.00171089172363281,0.000829696655273438,0,
00:00:00.352,0.00293540954589844,0.00157928466796875,0.000864028930664063,0,
00:00:00.356,0.00291824340820313,0.00153923034667969,0.000932693481445313,0,
00:00:00.36,0.00293540954589844,0.00153350830078125,0.000926971435546875,0,
00:00:00.364,0.00294685363769531,0.00156784057617188,0.000926971435546875,0,
00:00:00.368,0.00295257568359375,0.00157356262207031,0.000909805297851563,0,
00:00:00.372,0.00294685363769531,0.00157928466796875,0.000904083251953125,0,
00:00:00.376,0.0029754638671875,0.00164794921875,0.00089263916015625,0,
00:00:00.38,0.00300979614257813,0.00173377990722656,0.00084686279296875,0,
00:00:00.384,0.00295257568359375,0.0016021728515625,0.000829696655273438,0,
00:00:00.388,0.0029296875,0.00148200988769531,0.000955581665039063,0,
00:00:00.392,0.00293540954589844,0.00152778625488281,0.000932693481445313,0,
00:00:00.396,0.00294113159179688,0.00157928466796875,0.000881195068359375,0,
00:00:00.4,0.00294113159179688,0.00158500671386719,0.00089263916015625,0,
00:00:00.404,0.00294685363769531,0.00157356262207031,0.000926971435546875,0,
00:00:00.408,0.00295829772949219,0.00156784057617188,0.000909805297851563,0,
00:00:00.412,0.00295829772949219,0.00157356262207031,0.00089263916015625,0,
00:00:00.416,0.00295257568359375,0.00157928466796875,0.000881195068359375,0,
00:00:00.42,0.00295257568359375,0.00159072875976563,0.000875473022460938,0,
00:00:00.424,0.0029754638671875,0.00161933898925781,0.000875473022460938,0,
00:00:00.428,0.00298118591308594,0.00162506103515625,0.000881195068359375,0,
00:00:00.432,0.00299835205078125,0.0016937255859375,0.000841140747070313,0,
00:00:00.436,0.00294685363769531,0.001556396484375,0.00089263916015625,0,
00:00:00.44,0.00294685363769531,0.0015106201171875,0.00091552734375,0,
00:00:00.444,0.00295257568359375,0.00155067443847656,0.000932693481445313,0,
00:00:00.448,0.00296401977539063,0.00157928466796875,0.000926971435546875,0,
00:00:00.452,0.00295829772949219,0.00157356262207031,0.00089263916015625,0,
00:00:00.456,0.00295829772949219,0.00156211853027344,0.00089263916015625,0,
00:00:00.46,0.00295829772949219,0.00156211853027344,0.000898361206054688,0,
00:00:00.464,0.00296974182128906,0.00157928466796875,0.000898361206054688,0,
00:00:00.468,0.00298118591308594,0.0016021728515625,0.000886917114257813,0,
00:00:00.472,0.00299263000488281,0.00164222717285156,0.0008697509765625,0,
00:00:00.476,0.00303268432617188,0.00170516967773438,0.000841140747070313,0,
00:00:00.48,0.00298118591308594,0.00161933898925781,0.000806808471679688,0,
00:00:00.484,0.00292396545410156,0.00152206420898438,0.000909805297851563,0,
00:00:00.488,0.00294113159179688,0.00152206420898438,0.000955581665039063,0,
00:00:00.492,0.00295257568359375,0.00155067443847656,0.000926971435546875,0,
00:00:00.496,0.00296974182128906,0.00156211853027344,0.000898361206054688,0,
00:00:00.5,0.0029754638671875,0.00157356262207031,0.000898361206054688,0,
00:00:00.504,0.00296974182128906,0.00157928466796875,0.000898361206054688,0,
00:00:00.508,0.0029754638671875,0.00158500671386719,0.00089263916015625,0,
00:00:00.512,0.00301551818847656,0.00166511535644531,0.000881195068359375,0,
00:00:00.516,0.00300979614257813,0.00167655944824219,0.000806808471679688,0,
00:00:00.52,0.00294685363769531,0.0015106201171875,0.000841140747070313,0,
00:00:00.524,0.00296401977539063,0.00154495239257813,0.000944137573242188,0,
00:00:00.528,0.00298118591308594,0.00157928466796875,0.000881195068359375,0,
00:00:00.532,0.00298118591308594,0.00158500671386719,0.000898361206054688,0,
00:00:00.536,0.0029754638671875,0.00156211853027344,0.000909805297851563,0,
00:00:00.54,0.00299263000488281,0.00157928466796875,0.000909805297851563,0,
00:00:00.544,0.00298690795898438,0.00159072875976563,0.000898361206054688,0,
00:00:00.548,0.00298690795898438,0.00158500671386719,0.00089263916015625,0,
00:00:00.552,0.00298118591308594,0.00157356262207031,0.000886917114257813,0,
00:00:00.556,0.00298690795898438,0.00157928466796875,0.000881195068359375,0,
00:00:00.56,0.00299263000488281,0.00157928466796875,0.000886917114257813,0,
00:00:00.564,0.00299835205078125,0.0016021728515625,0.000886917114257813,0,
00:00:00.568,0.00301551818847656,0.00164222717285156,0.000858306884765625,0,
00:00:00.572,0.00303268432617188,0.00167655944824219,0.000835418701171875,0,
00:00:00.576,0.00299263000488281,0.00159645080566406,0.000864028930664063,0,
00:00:00.58,0.00298118591308594,0.00153350830078125,0.00089263916015625,0,
00:00:00.584,0.0029754638671875,0.00155067443847656,0.00091552734375,0,
00:00:00.588,0.00300407409667969,0.00157356262207031,0.000932693481445313,0,
00:00:00.592,0.00300979614257813,0.0016021728515625,0.00089263916015625,0,
00:00:00.596,0.00299263000488281,0.00157928466796875,0.00089263916015625,0,
00:00:00.6,0.00299263000488281,0.00157356262207031,0.000875473022460938,0,
00:00:00.604,0.00299835205078125,0.00159645080566406,0.00089263916015625,0,
00:00:00.608,0.00299835205078125,0.00159072875976563,0.000926971435546875,0,
00:00:00.612,0.00299835205078125,0.00157356262207031,0.00089263916015625,0,
00:00:00.616,0.00300407409667969,0.00157928466796875,0.0008697509765625,0,
00:00:00.62,0.00299835205078125,0.00156784057617188,0.000886917114257813,0,
00:00:00.624,0.00299263000488281,0.00156211853027344,0.000904083251953125,0,
00:00:00.628,0.00299263000488281,0.00159072875976563,0.000909805297851563,0,
00:00:00.632,0.00299835205078125,0.00159645080566406,0.000904083251953125,0,
00:00:00.636,0.00300979614257813,0.0016021728515625,0.00089263916015625,0,
00:00:00.64,0.00303840637207031,0.00165939331054688,0.000864028930664063,0,
00:00:00.644,0.00303840637207031,0.00165367126464844,0.000829696655273438,0,
00:00:00.648,0.0029754638671875,0.00152778625488281,0.0008697509765625,0,
00:00:00.652,0.00298118591308594,0.00153923034667969,0.000921249389648438,0,
00:00:00.656,0.00301551818847656,0.00156211853027344,0.000926971435546875,0,
00:00:00.66,0.00301551818847656,0.00158500671386719,0.000904083251953125,0,
00:00:00.664,0.00301551818847656,0.0016021728515625,0.00091552734375,0,
00:00:00.668,0.00300979614257813,0.00157928466796875,0.000909805297851563,0,
00:00:00.672,0.00302696228027344,0.00159645080566406,0.000898361206054688,0,
00:00:00.676,0.00303268432617188,0.00161361694335938,0.000886917114257813,0,
00:00:00.68,0.003021240234375,0.00161361694335938,0.000886917114257813,0,
00:00:00.684,0.003021240234375,0.00159645080566406,0.000904083251953125,0,
00:00:00.688,0.00303268432617188,0.00161933898925781,0.00089263916015625,0,
00:00:00.692,0.00303268432617188,0.00161933898925781,0.000835418701171875,0,
00:00:00.696,0.00299263000488281,0.00152206420898438,0.000904083251953125,0,
00:00:00.7,0.00300407409667969,0.00152778625488281,0.000967025756835938,0,
00:00:00.704,0.00300979614257813,0.00156784057617188,0.000932693481445313,0,
00:00:00.708,0.003021240234375,0.00158500671386719,0.000909805297851563,0,
00:00:00.712,0.003021240234375,0.00158500671386719,0.000898361206054688,0,
00:00:00.716,0.003021240234375,0.00157928466796875,0.000898361206054688,0,
00:00:00.72,0.003021240234375,0.00157356262207031,0.000904083251953125,0,
00:00:00.724,0.003021240234375,0.00157356262207031,0.000904083251953125,0,
00:00:00.728,0.00302696228027344,0.00157928466796875,0.000898361206054688,0,
00:00:00.732,0.00303268432617188,0.00161361694335938,0.000875473022460938,0,
00:00:00.736,0.00306129455566406,0.00165939331054688,0.000835418701171875,0,
00:00:00.74,0.0030670166015625,0.00167083740234375,0.00084686279296875,0,
00:00:00.744,0.00303840637207031,0.00159072875976563,0.00093841552734375,0,
00:00:00.748,0.00301551818847656,0.001556396484375,0.00093841552734375,0,
00:00:00.752,0.003021240234375,0.00153923034667969,0.00093841552734375,0,
00:00:00.756,0.00303840637207031,0.00157356262207031,0.00091552734375,0,
00:00:00.76,0.00305557250976563,0.00163078308105469,0.000881195068359375,0,
00:00:00.764,0.00304985046386719,0.00162506103515625,0.00089263916015625,0,
00:00:00.768,0.003021240234375,0.00151634216308594,0.00091552734375,0,
00:00:00.772,0.00303840637207031,0.00153923034667969,0.00091552734375,0,
00:00:00.776,0.00304985046386719,0.00157356262207031,0.000921249389648438,0,
00:00:00.78,0.00303840637207031,0.00160789489746094,0.000932693481445313,0,
00:00:00.784,0.00303840637207031,0.00157356262207031,0.000932693481445313,0,
00:00:00.788,0.00304985046386719,0.00157356262207031,0.000921249389648438,0,
00:00:00.792,0.00305557250976563,0.0016021728515625,0.00091552734375,0,
00:00:00.796,0.00304985046386719,0.00159645080566406,0.000904083251953125,0,
00:00:00.8,0.00305557250976563,0.00161361694335938,0.000898361206054688,0,
00:00:00.804,0.00304985046386719,0.00159645080566406,0.000904083251953125,0,
00:00:00.808,0.00304985046386719,0.00156784057617188,0.000904083251953125,0,
00:00:00.812,0.00305557250976563,0.00157928466796875,0.00091552734375,0,
00:00:00.816,0.0030670166015625,0.00158500671386719,0.000909805297851563,0,
00:00:00.82,0.00307846069335938,0.0016021728515625,0.000909805297851563,0,
00:00:00.824,0.0030670166015625,0.00161933898925781,0.00091552734375,0,
00:00:00.828,0.00307273864746094,0.0016021728515625,0.00089263916015625,0,
00:00:00.832,0.00304412841796875,0.001556396484375,0.000886917114257813,0,
00:00:00.836,0.00305557250976563,0.001556396484375,0.000944137573242188,0,
00:00:00.84,0.00308418273925781,0.0016021728515625,0.000926971435546875,0,
00:00:00.844,0.00311279296875,0.00166511535644531,0.00091552734375,0,
00:00:00.848,0.00307846069335938,0.00162506103515625,0.000898361206054688,0,
00:00:00.852,0.00308990478515625,0.00161933898925781,0.000909805297851563,0,
00:00:00.856,0.00307846069335938,0.00155067443847656,0.000921249389648438,0,
00:00:00.86,0.0030670166015625,0.00155067443847656,0.000932693481445313,0,
00:00:00.864,0.00307273864746094,0.00153350830078125,0.0009613037109375,0,
00:00:00.868,0.00308990478515625,0.00157928466796875,0.0009613037109375,0,
00:00:00.872,0.00308418273925781,0.00156211853027344,0.000944137573242188,0,
00:00:00.876,0.00308990478515625,0.00158500671386719,0.000926971435546875,0,
00:00:00.88,0.00308990478515625,0.00157928466796875,0.000904083251953125,0,
00:00:00.884,0.00308990478515625,0.00158500671386719,0.000909805297851563,0,
00:00:00.888,0.00308990478515625,0.00159072875976563,0.000955581665039063,0,
00:00:00.892,0.00308990478515625,0.00157356262207031,0.000949859619140625,0,
00:00:00.896,0.00310134887695313,0.00158500671386719,0.000926971435546875,0,
00:00:00.9,0.00310134887695313,0.00158500671386719,0.00093841552734375,0,
00:00:00.904,0.00310707092285156,0.00163078308105469,0.000926971435546875,0,
00:00:00.908,0.00310707092285156,0.0016021728515625,0.00091552734375,0,
00:00:00.912,0.00308418273925781,0.00154495239257813,0.000932693481445313,0,
00:00:00.916,0.00309562683105469,0.00156784057617188,0.00093841552734375,0,
00:00:00.92,0.00312423706054688,0.00159072875976563,0.000949859619140625,0,
00:00:00.924,0.00311279296875,0.00159645080566406,0.000949859619140625,0,
00:00:00.928,0.00311279296875,0.00159645080566406,0.000926971435546875,0,
00:00:00.932,0.00312423706054688,0.00160789489746094,0.000932693481445313,0,
00:00:00.936,0.00312423706054688,0.00161361694335938,0.000932693481445313,0,
00:00:00.94,0.00312995910644531,0.00161933898925781,0.000944137573242188,0,
00:00:00.944,0.00313568115234375,0.00159072875976563,0.0009613037109375,0,
00:00:00.948,0.00312423706054688,0.00161361694335938,0.000898361206054688,0,
00:00:00.952,0.00311851501464844,0.00157356262207031,0.000955581665039063,0,
00:00:00.956,0.00311851501464844,0.00153923034667969,0.00101280212402344,0,
00:00:00.96,0.00316429138183594,0.00164222717285156,0.000995635986328125,0,
00:00:00.964,0.003204345703125,0.00174522399902344,0.000921249389648438,0,
00:00:00.968,0.00310707092285156,0.00152778625488281,0.000898361206054688,0,
00:00:00.972,0.00310134887695313,0.00149917602539063,0.00105857849121094,0,
00:00:00.976,0.00312423706054688,0.00153923034667969,0.00101280212402344,0,
00:00:00.98,0.00313568115234375,0.00159072875976563,0.000989913940429688,0,
00:00:00.984,0.00314140319824219,0.00159072875976563,0.000978469848632813,0,
00:00:00.988,0.00314712524414063,0.00157356262207031,0.000989913940429688,0,
00:00:00.992,0.00315284729003906,0.00158500671386719,0.000978469848632813,0,
00:00:00.996,0.00315284729003906,0.00158500671386719,0.000972747802734375,0,
00:00:01,0.00315284729003906,0.00157928466796875,0.000972747802734375,0,
00:00:01.004,0.00316429138183594,0.00159072875976563,0.000967025756835938,0,
00:00:01.008,0.00318717956542969,0.00164222717285156,0.0009613037109375,0,
00:00:01.012,0.00316429138183594,0.00160789489746094,0.0009613037109375,0,
00:00:01.016,0.00316429138183594,0.00159645080566406,0.000972747802734375,0,
00:00:01.02,0.00318145751953125,0.00160789489746094,0.000978469848632813,0,
00:00:01.024,0.003204345703125,0.00163650512695313,0.000995635986328125,0,
00:00:01.028,0.00319862365722656,0.00160789489746094,0.000989913940429688,0,
00:00:01.032,0.00316429138183594,0.00154495239257813,0.001007080078125,0,
00:00:01.036,0.00317001342773438,0.00157928466796875,0.00100135803222656,0,
00:00:01.04,0.00318145751953125,0.00159645080566406,0.001007080078125,0,
00:00:01.044,0.003204345703125,0.00161933898925781,0.000989913940429688,0,
00:00:01.048,0.00327873229980469,0.00176239013671875,0.000955581665039063,0,
00:00:01.052,0.00318717956542969,0.00161361694335938,0.0009613037109375,0,
00:00:01.056,0.00314712524414063,0.00148773193359375,0.00104713439941406,0,
00:00:01.06,0.00318145751953125,0.00153350830078125,0.0010528564453125,0,
00:00:01.064,0.00319862365722656,0.00157928466796875,0.00102996826171875,0,
00:00:01.068,0.00321006774902344,0.00159072875976563,0.00101852416992188,0,
00:00:01.072,0.00321578979492188,0.00159645080566406,0.001007080078125,0,
00:00:01.076,0.00322151184082031,0.00160789489746094,0.00101852416992188,0,
00:00:01.08,0.00322723388671875,0.0016021728515625,0.00101852416992188,0,
00:00:01.084,0.00322723388671875,0.0016021728515625,0.00101852416992188,0,
00:00:01.088,0.0032501220703125,0.00164222717285156,0.001007080078125,0,
00:00:01.092,0.00324440002441406,0.00165367126464844,0.000949859619140625,0,
00:00:01.096,0.00323867797851563,0.00161933898925781,0.000972747802734375,0,
00:00:01.1,0.00324440002441406,0.00159645080566406,0.00105857849121094,0,
00:00:01.104,0.0032501220703125,0.00161361694335938,0.00106430053710938,0,
00:00:01.108,0.00325584411621094,0.00163078308105469,0.00102996826171875,0,
00:00:01.112,0.00323295593261719,0.00157356262207031,0.00104713439941406,0,
00:00:01.116,0.00323867797851563,0.00156784057617188,0.0010528564453125,0,
00:00:01.12,0.00325584411621094,0.00157928466796875,0.0010528564453125,0,
00:00:01.124,0.00327301025390625,0.00161933898925781,0.00104713439941406,0,
00:00:01.128,0.00330162048339844,0.00168228149414063,0.00102996826171875,0,
00:00:01.132,0.00327873229980469,0.00164794921875,0.000978469848632813,0,
00:00:01.136,0.00323867797851563,0.00153923034667969,0.00107002258300781,0,
00:00:01.14,0.00326728820800781,0.00157928466796875,0.00107574462890625,0,
00:00:01.144,0.00329017639160156,0.00161933898925781,0.00107574462890625,0,
00:00:01.148,0.00329017639160156,0.00161361694335938,0.00106430053710938,0,
00:00:01.152,0.00329017639160156,0.00160789489746094,0.0010528564453125,0,
00:00:01.156,0.0032958984375,0.00160789489746094,0.0010528564453125,0,
00:00:01.16,0.00330162048339844,0.00160789489746094,0.0010528564453125,0,
00:00:01.164,0.00330734252929688,0.00161361694335938,0.00105857849121094,0,
00:00:01.168,0.00336456298828125,0.00171661376953125,0.00103569030761719,0,
00:00:01.172,0.00336456298828125,0.00171661376953125,0.000944137573242188,0,
00:00:01.176,0.00328445434570313,0.00155067443847656,0.00107002258300781,0,
00:00:01.18,0.00330734252929688,0.00157928466796875,0.00113868713378906,0,
00:00:01.184,0.00332450866699219,0.00158500671386719,0.00111579895019531,0,
00:00:01.188,0.00333595275878906,0.00161361694335938,0.00108146667480469,0,
00:00:01.192,0.00337028503417969,0.0016937255859375,0.00105857849121094,0,
00:00:01.196,0.00339317321777344,0.001739501953125,0.000989913940429688,0,
00:00:01.2,0.00332450866699219,0.00159645080566406,0.00104141235351563,0,
00:00:01.204,0.00333023071289063,0.00156211853027344,0.00115585327148438,0,
00:00:01.208,0.00334739685058594,0.00157356262207031,0.00112724304199219,0,
00:00:01.212,0.00335884094238281,0.0016021728515625,0.0010986328125,0,
00:00:01.216,0.00337028503417969,0.00162506103515625,0.00109291076660156,0,
00:00:01.22,0.00337028503417969,0.00162506103515625,0.00108718872070313,0,
00:00:01.224,0.00337600708007813,0.00162506103515625,0.00109291076660156,0,
00:00:01.228,0.003387451171875,0.00161933898925781,0.00108718872070313,0,
00:00:01.232,0.00339317321777344,0.00161933898925781,0.00108718872070313,0,
00:00:01.236,0.00342178344726563,0.00165939331054688,0.00108146667480469,0,
00:00:01.24,0.00341033935546875,0.00166511535644531,0.00107002258300781,0,
00:00:01.244,0.00339317321777344,0.00162506103515625,0.00105857849121094,0,
00:00:01.248,0.00339889526367188,0.00161933898925781,0.00112152099609375,0,
00:00:01.252,0.00341033935546875,0.00163078308105469,0.00112152099609375,0,
00:00:01.256,0.00341606140136719,0.00164794921875,0.00111007690429688,0,
00:00:01.26,0.00342178344726563,0.00165939331054688,0.00110435485839844,0,
00:00:01.264,0.0034332275390625,0.00165939331054688,0.00111007690429688,0,
00:00:01.268,0.00345039367675781,0.0016937255859375,0.0010986328125,0,
00:00:01.272,0.00345039367675781,0.00167083740234375,0.00105857849121094,0,
00:00:01.276,0.00342750549316406,0.00160789489746094,0.00108146667480469,0,
00:00:01.28,0.0034332275390625,0.00160789489746094,0.00113296508789063,0,
00:00:01.284,0.00345611572265625,0.00164222717285156,0.00115585327148438,0,
00:00:01.288,0.00346183776855469,0.00163650512695313,0.00113868713378906,0,
00:00:01.292,0.00346183776855469,0.00165367126464844,0.00113868713378906,0,
00:00:01.296,0.00346755981445313,0.00164222717285156,0.00112724304199219,0,
00:00:01.3,0.00347328186035156,0.00164794921875,0.00113868713378906,0,
00:00:01.304,0.00347900390625,0.00165367126464844,0.00113868713378906,0,
00:00:01.308,0.00347900390625,0.00164794921875,0.00112724304199219,0,
00:00:01.312,0.00349617004394531,0.00165939331054688,0.00112724304199219,0,
00:00:01.316,0.00351333618164063,0.00168228149414063,0.00112724304199219,0,
00:00:01.32,0.00351333618164063,0.0016937255859375,0.00112724304199219,0,
00:00:01.324,0.00351905822753906,0.00167655944824219,0.00111007690429688,0,
00:00:01.328,0.00351905822753906,0.00164222717285156,0.00112724304199219,0,
00:00:01.332,0.0035247802734375,0.00167655944824219,0.00111007690429688,0,
00:00:01.336,0.00351333618164063,0.00163650512695313,0.00113868713378906,0,
00:00:01.34,0.0035247802734375,0.00163650512695313,0.00120162963867188,0,
00:00:01.344,0.00353622436523438,0.00165939331054688,0.00117874145507813,0,
00:00:01.348,0.00354766845703125,0.00168800354003906,0.00115585327148438,0,
00:00:01.352,0.003570556640625,0.00171661376953125,0.00112152099609375,0,
00:00:01.356,0.00356483459472656,0.00167083740234375,0.00111579895019531,0,
00:00:01.36,0.00354766845703125,0.00165367126464844,0.00115585327148438,0,
00:00:01.364,0.003570556640625,0.00165939331054688,0.00118446350097656,0,
00:00:01.368,0.00357627868652344,0.00168228149414063,0.00115585327148438,0,
00:00:01.372,0.00357627868652344,0.00168228149414063,0.00115013122558594,0,
00:00:01.376,0.00358200073242188,0.00166511535644531,0.00117874145507813,0,
00:00:01.38,0.00359916687011719,0.00167655944824219,0.001190185546875,0,
00:00:01.384,0.00361061096191406,0.00168228149414063,0.00117874145507813,0,
00:00:01.388,0.00362205505371094,0.00169944763183594,0.00116157531738281,0,
00:00:01.392,0.0036163330078125,0.00170516967773438,0.00115013122558594,0,
00:00:01.396,0.00362205505371094,0.00168228149414063,0.00115585327148438,0,
00:00:01.4,0.00362205505371094,0.00168800354003906,0.00117301940917969,0,
00:00:01.404,0.00362777709960938,0.00169944763183594,0.00117874145507813,0,
00:00:01.408,0.00363922119140625,0.00170516967773438,0.00116157531738281,0,
00:00:01.412,0.00364494323730469,0.00168228149414063,0.00116157531738281,0,
00:00:01.416,0.00365066528320313,0.00168228149414063,0.00119590759277344,0,
00:00:01.42,0.00366783142089844,0.00171661376953125,0.00118446350097656,0,
00:00:01.424,0.00365638732910156,0.0016937255859375,0.00117301940917969,0,
00:00:01.428,0.00365638732910156,0.00168800354003906,0.00117301940917969,0,
00:00:01.432,0.00365638732910156,0.00167655944824219,0.00119590759277344,0,
00:00:01.436,0.003662109375,0.00168800354003906,0.001190185546875,0,
00:00:01.44,0.00367355346679688,0.00169944763183594,0.00118446350097656,0,
00:00:01.444,0.00367355346679688,0.00170516967773438,0.00117301940917969,0,
00:00:01.448,0.00368499755859375,0.00172805786132813,0.00116157531738281,0,
00:00:01.452,0.00369071960449219,0.00173377990722656,0.00117301940917969,0,
00:00:01.456,0.0037078857421875,0.00175666809082031,0.00115013122558594,0,
00:00:01.46,0.00370216369628906,0.00176239013671875,0.00116729736328125,0,
00:00:01.464,0.00368499755859375,0.00170516967773438,0.00121307373046875,0,
00:00:01.468,0.00367927551269531,0.00165939331054688,0.00122451782226563,0,
00:00:01.472,0.00368499755859375,0.00168800354003906,0.00118446350097656,0,
00:00:01.476,0.00370216369628906,0.00172805786132813,0.00116729736328125,0,
00:00:01.48,0.00371360778808594,0.00173377990722656,0.001190185546875,0,
00:00:01.484,0.00371932983398438,0.00172233581542969,0.00119590759277344,0,
00:00:01.488,0.00371932983398438,0.00173377990722656,0.001190185546875,0,
00:00:01.492,0.0037078857421875,0.00170516967773438,0.00118446350097656,0,
00:00:01.496,0.00371932983398438,0.00171089172363281,0.00117874145507813,0,
00:00:01.5,0.00373649597167969,0.00172233581542969,0.00117874145507813,0,
00:00:01.504,0.00371360778808594,0.00171661376953125,0.00118446350097656,0,
00:00:01.508,0.0037078857421875,0.001739501953125,0.001190185546875,0,
00:00:01.512,0.00369644165039063,0.00167655944824219,0.001190185546875,0,
00:00:01.516,0.00371932983398438,0.00170516967773438,0.00119590759277344,0,
00:00:01.52,0.00371932983398438,0.00172233581542969,0.00117301940917969,0,
00:00:01.524,0.00374221801757813,0.00172805786132813,0.0011444091796875,0,
00:00:01.528,0.00374221801757813,0.00176811218261719,0.00113296508789063,0,
00:00:01.532,0.00371932983398438,0.00170516967773438,0.00121879577636719,0,
00:00:01.536,0.00373649597167969,0.00169944763183594,0.00121307373046875,0,
00:00:01.54,0.00374221801757813,0.00172233581542969,0.00118446350097656,0,
00:00:01.544,0.00374794006347656,0.00174522399902344,0.00117874145507813,0,
00:00:01.548,0.00374794006347656,0.00175666809082031,0.00116157531738281,0,
00:00:01.552,0.00374221801757813,0.00175666809082031,0.00113296508789063,0,
00:00:01.556,0.00374794006347656,0.001739501953125,0.00116157531738281,0,
00:00:01.56,0.00375938415527344,0.00173377990722656,0.00118446350097656,0,
00:00:01.564,0.003753662109375,0.0016937255859375,0.001190185546875,0,
00:00:01.568,0.00375938415527344,0.00171661376953125,0.00116729736328125,0,
00:00:01.572,0.00376510620117188,0.00174522399902344,0.00116157531738281,0,
00:00:01.576,0.00375938415527344,0.00174522399902344,0.00117874145507813,0,
00:00:01.58,0.00375938415527344,0.00172805786132813,0.00116157531738281,0,
00:00:01.584,0.00376510620117188,0.00172233581542969,0.00115013122558594,0,
00:00:01.588,0.00375938415527344,0.00171089172363281,0.00116729736328125,0,
00:00:01.592,0.00377655029296875,0.00173377990722656,0.00118446350097656,0,
00:00:01.596,0.00379371643066406,0.00177383422851563,0.00115013122558594,0,
00:00:01.6,0.00378799438476563,0.00177955627441406,0.00116157531738281,0,
00:00:01.604,0.00378799438476563,0.00174522399902344,0.0011444091796875,0,
00:00:01.608,0.00378799438476563,0.001739501953125,0.00113296508789063,0,
00:00:01.612,0.00379371643066406,0.00174522399902344,0.00115585327148438,0,
00:00:01.616,0.00379371643066406,0.001739501953125,0.0011444091796875,0,
00:00:01.62,0.00377655029296875,0.00172233581542969,0.00116157531738281,0,
00:00:01.624,0.00378799438476563,0.00173377990722656,0.00115013122558594,0,
00:00:01.628,0.00380516052246094,0.00177383422851563,0.00111007690429688,0,
00:00:01.632,0.00377655029296875,0.00175094604492188,0.00113296508789063,0,
00:00:01.636,0.00378799438476563,0.00167655944824219,0.00116729736328125,0,
00:00:01.64,0.00381088256835938,0.00170516967773438,0.0011444091796875,0,
00:00:01.644,0.00381660461425781,0.00175666809082031,0.0011444091796875,0,
00:00:01.648,0.00382232666015625,0.00176239013671875,0.00112152099609375,0,
00:00:01.652,0.00382232666015625,0.00176239013671875,0.00111007690429688,0,
00:00:01.656,0.00381660461425781,0.00174522399902344,0.00110435485839844,0,
00:00:01.66,0.00382232666015625,0.00169944763183594,0.00113296508789063,0,
00:00:01.664,0.00383949279785156,0.00175094604492188,0.00111579895019531,0,
00:00:01.668,0.00384521484375,0.00176811218261719,0.00106430053710938,0,
00:00:01.672,0.00384521484375,0.00174522399902344,0.00111007690429688,0,
00:00:01.676,0.00384521484375,0.00173377990722656,0.00113296508789063,0,
00:00:01.68,0.00385093688964844,0.00173377990722656,0.00115585327148438,0,
00:00:01.684,0.00387382507324219,0.00173377990722656,0.00112152099609375,0,
00:00:01.688,0.00387954711914063,0.001739501953125,0.00111007690429688,0,
00:00:01.692,0.0038909912109375,0.00175094604492188,0.00110435485839844,0,
00:00:01.696,0.00388526916503906,0.001739501953125,0.00109291076660156,0,
00:00:01.7,0.0038909912109375,0.00176811218261719,0.00107574462890625,0,
00:00:01.704,0.003936767578125,0.00181388854980469,0.00106430053710938,0,
00:00:01.708,0.00392532348632813,0.00180816650390625,0.00103569030761719,0,
00:00:01.712,0.00387954711914063,0.00167083740234375,0.00107002258300781,0,
00:00:01.716,0.00390815734863281,0.00168800354003906,0.00112724304199219,0,
00:00:01.72,0.00391387939453125,0.00171089172363281,0.00112152099609375,0,
00:00:01.724,0.00392532348632813,0.00173377990722656,0.00111007690429688,0,
00:00:01.728,0.00395393371582031,0.00177955627441406,0.00108146667480469,0,
00:00:01.732,0.00399398803710938,0.00185394287109375,0.00104713439941406,0,
00:00:01.736,0.00394821166992188,0.00175094604492188,0.001007080078125,0,
00:00:01.74,0.0038909912109375,0.00163650512695313,0.00110435485839844,0,
00:00:01.744,0.00392532348632813,0.00168800354003906,0.00112724304199219,0,
00:00:01.748,0.00394821166992188,0.00171661376953125,0.00108718872070313,0,
00:00:01.752,0.00396537780761719,0.00172805786132813,0.00106430053710938,0,
00:00:01.756,0.00396537780761719,0.00172233581542969,0.00107002258300781,0,
00:00:01.76,0.00396537780761719,0.001739501953125,0.00106430053710938,0,
00:00:01.764,0.00397682189941406,0.00177383422851563,0.0010528564453125,0,
00:00:01.768,0.00398826599121094,0.0017852783203125,0.00101852416992188,0,
00:00:01.772,0.00399398803710938,0.001739501953125,0.00102424621582031,0,
00:00:01.776,0.00398826599121094,0.00173377990722656,0.00104713439941406,0,
00:00:01.78,0.00399398803710938,0.00175666809082031,0.00102996826171875,0,
00:00:01.784,0.00398826599121094,0.00172805786132813,0.00102996826171875,0,
00:00:01.788,0.00399398803710938,0.00170516967773438,0.00104713439941406,0,
00:00:01.792,0.00399971008300781,0.00172805786132813,0.00102996826171875,0,
00:00:01.796,0.00401115417480469,0.00173377990722656,0.00102424621582031,0,
00:00:01.8,0.00401687622070313,0.00172805786132813,0.00102424621582031,0,
00:00:01.804,0.00401687622070313,0.00172233581542969,0.00101280212402344,0,
00:00:01.808,0.00403404235839844,0.00172233581542969,0.001007080078125,0,
00:00:01.812,0.00405120849609375,0.00174522399902344,0.000995635986328125,0,
00:00:01.816,0.00406265258789063,0.00179672241210938,0.0009613037109375,0,
00:00:01.82,0.00408554077148438,0.00182533264160156,0.0009613037109375,0,
00:00:01.824,0.00405120849609375,0.00171661376953125,0.00093841552734375,0,
00:00:01.828,0.00403976440429688,0.00165367126464844,0.00102996826171875,0,
00:00:01.832,0.00405693054199219,0.00167655944824219,0.00102996826171875,0,
00:00:01.836,0.00407981872558594,0.00172233581542969,0.00101280212402344,0,
00:00:01.84,0.00410842895507813,0.00177955627441406,0.001007080078125,0,
00:00:01.844,0.00410842895507813,0.0017852783203125,0.000932693481445313,0,
00:00:01.848,0.00406265258789063,0.00164222717285156,0.00098419189453125,0,
00:00:01.852,0.00409126281738281,0.00165939331054688,0.00101280212402344,0,
00:00:01.856,0.00410842895507813,0.00169944763183594,0.000972747802734375,0,
00:00:01.86,0.00413703918457031,0.00172233581542969,0.000949859619140625,0,
00:00:01.864,0.00417709350585938,0.00177955627441406,0.000926971435546875,0,
00:00:01.868,0.00417137145996094,0.00173377990722656,0.000909805297851563,0,
00:00:01.872,0.00415420532226563,0.00167655944824219,0.000932693481445313,0,
00:00:01.876,0.00415420532226563,0.00167655944824219,0.000932693481445313,0,
00:00:01.88,0.00417709350585938,0.0016937255859375,0.000944137573242188,0,
00:00:01.884,0.00418853759765625,0.00170516967773438,0.000921249389648438,0,
00:00:01.888,0.00421142578125,0.00172233581542969,0.00091552734375,0,
00:00:01.892,0.00424575805664063,0.00179100036621094,0.000875473022460938,0,
00:00:01.896,0.00420570373535156,0.00169944763183594,0.00084686279296875,0,
00:00:01.9,0.00415992736816406,0.00160789489746094,0.000967025756835938,0,
00:00:01.904,0.00419425964355469,0.00165939331054688,0.000926971435546875,0,
00:00:01.908,0.00420570373535156,0.0016937255859375,0.000886917114257813,0,
00:00:01.912,0.00422286987304688,0.0016937255859375,0.000886917114257813,0,
00:00:01.916,0.00422286987304688,0.00168800354003906,0.00089263916015625,0,
00:00:01.92,0.00422859191894531,0.00169944763183594,0.000881195068359375,0,
00:00:01.924,0.00425148010253906,0.001739501953125,0.000875473022460938,0,
00:00:01.928,0.00428581237792969,0.0017852783203125,0.000835418701171875,0,
00:00:01.932,0.00422286987304688,0.00162506103515625,0.000818252563476563,0,
00:00:01.936,0.00419998168945313,0.00159645080566406,0.00089263916015625,0,
00:00:01.94,0.00422286987304688,0.00164222717285156,0.00089263916015625,0,
00:00:01.944,0.00424003601074219,0.00166511535644531,0.000864028930664063,0,
00:00:01.948,0.00426292419433594,0.00169944763183594,0.000823974609375,0,
00:00:01.952,0.00427436828613281,0.00171089172363281,0.000823974609375,0,
00:00:01.956,0.00427436828613281,0.00172233581542969,0.000812530517578125,0,
00:00:01.96,0.0042572021484375,0.00167083740234375,0.000823974609375,0,
00:00:01.964,0.00423431396484375,0.00161361694335938,0.000858306884765625,0,
00:00:01.968,0.00425148010253906,0.00161933898925781,0.000886917114257813,0,
00:00:01.972,0.00426292419433594,0.00166511535644531,0.000852584838867188,0,
00:00:01.976,0.00426864624023438,0.00165367126464844,0.000823974609375,0,
00:00:01.98,0.00426864624023438,0.00164222717285156,0.000852584838867188,0,
00:00:01.984,0.00427436828613281,0.00166511535644531,0.000835418701171875,0,
00:00:01.988,0.004302978515625,0.00172233581542969,0.000795364379882813,0,
00:00:01.992,0.004302978515625,0.00171661376953125,0.0007781982421875,0,
00:00:01.996,0.00424003601074219,0.00157928466796875,0.000818252563476563,0,
00:00:02,0.00424003601074219,0.00158500671386719,0.000841140747070313,0,
00:00:02.004,0.00428009033203125,0.00163078308105469,0.000812530517578125,0,
00:00:02.008,0.00430870056152344,0.00167655944824219,0.0007781982421875,0,
00:00:02.012,0.004302978515625,0.00167655944824219,0.0007781982421875,0,
00:00:02.016,0.00432014465332031,0.00175094604492188,0.000749588012695313,0,
00:00:02.02,0.0042572021484375,0.00161361694335938,0.00075531005859375,0,
00:00:02.024,0.00427436828613281,0.00157356262207031,0.000818252563476563,0,
00:00:02.028,0.00433158874511719,0.00167655944824219,0.000812530517578125,0,
00:00:02.032,0.00440025329589844,0.00184249877929688,0.00070953369140625,0,
00:00:02.036,0.00432014465332031,0.00168228149414063,0.0006866455078125,0,
00:00:02.04,0.00425148010253906,0.00149345397949219,0.000841140747070313,0,
00:00:02.044,0.00427436828613281,0.00155067443847656,0.000835418701171875,0,
00:00:02.048,0.00434303283691406,0.00166511535644531,0.000749588012695313,0,
00:00:02.052,0.00436019897460938,0.001739501953125,0.000680923461914063,0,
00:00:02.056,0.00431442260742188,0.00164222717285156,0.000726699829101563,0,
00:00:02.06,0.00429153442382813,0.00157356262207031,0.000818252563476563,0,
00:00:02.064,0.00430870056152344,0.00161361694335938,0.000783920288085938,0,
00:00:02.068,0.00433731079101563,0.00168228149414063,0.000749588012695313,0,
00:00:02.072,0.00432586669921875,0.00165367126464844,0.000738143920898438,0,
00:00:02.076,0.00433731079101563,0.00165939331054688,0.000732421875,0,
00:00:02.08,0.00432586669921875,0.00160789489746094,0.0007781982421875,0,
00:00:02.084,0.00432586669921875,0.00159645080566406,0.000749588012695313,0,
00:00:02.088,0.00434303283691406,0.00163650512695313,0.000720977783203125,0,
00:00:02.092,0.00437164306640625,0.00169944763183594,0.000726699829101563,0,
00:00:02.096,0.00435447692871094,0.0016937255859375,0.000680923461914063,0,
00:00:02.1,0.00433158874511719,0.00161933898925781,0.000726699829101563,0,
00:00:02.104,0.00434303283691406,0.0016021728515625,0.00070953369140625,0,
00:00:02.108,0.00433731079101563,0.00159645080566406,0.000749588012695313,0,
00:00:02.112,0.00437736511230469,0.00167655944824219,0.000749588012695313,0,
00:00:02.116,0.00440025329589844,0.00176239013671875,0.000675201416015625,0,
00:00:02.12,0.0043487548828125,0.00164794921875,0.000680923461914063,0,
00:00:02.124,0.00433731079101563,0.00152778625488281,0.000726699829101563,0,
00:00:02.128,0.0043487548828125,0.00156784057617188,0.00070953369140625,0,
00:00:02.132,0.00436592102050781,0.00160789489746094,0.000698089599609375,0,
00:00:02.136,0.00437164306640625,0.00160789489746094,0.000680923461914063,0,
00:00:02.14,0.00439453125,0.00165367126464844,0.000715255737304688,0,
00:00:02.144,0.00438308715820313,0.00159645080566406,0.000680923461914063,0,
00:00:02.148,0.00437736511230469,0.00156211853027344,0.000692367553710938,0,
00:00:02.152,0.00438308715820313,0.00160789489746094,0.0006866455078125,0,
00:00:02.156,0.00437736511230469,0.00164794921875,0.000692367553710938,0,
00:00:02.16,0.00442886352539063,0.00166511535644531,0.000703811645507813,0,
00:00:02.164,0.00441741943359375,0.00165367126464844,0.00066375732421875,0,
00:00:02.168,0.00440025329589844,0.0016021728515625,0.000652313232421875,0,
00:00:02.172,0.00437164306640625,0.00159645080566406,0.000675201416015625,0,
00:00:02.176,0.00439453125,0.0016021728515625,0.000698089599609375,0,
00:00:02.18,0.00446891784667969,0.00171089172363281,0.00066375732421875,0,
00:00:02.184,0.00445175170898438,0.00172805786132813,0.000583648681640625,0,
00:00:02.188,0.00437736511230469,0.00158500671386719,0.000646591186523438,0,
00:00:02.192,0.00436592102050781,0.00146484375,0.000761032104492188,0,
00:00:02.196,0.00440597534179688,0.00159645080566406,0.000720977783203125,0,
00:00:02.2,0.00443458557128906,0.00164794921875,0.0006866455078125,0,
00:00:02.204,0.00445747375488281,0.00163078308105469,0.00066375732421875,0,
00:00:02.208,0.00442886352539063,0.00159645080566406,0.0006866455078125,0,
00:00:02.212,0.00438880920410156,0.00151634216308594,0.000675201416015625,0,
00:00:02.216,0.00438308715820313,0.00152206420898438,0.000680923461914063,0,
00:00:02.22,0.00442886352539063,0.00154495239257813,0.000675201416015625,0,
00:00:02.224,0.00445175170898438,0.00161933898925781,0.000640869140625,0,
00:00:02.228,0.00445175170898438,0.00165367126464844,0.000612258911132813,0,
00:00:02.232,0.00442886352539063,0.00157928466796875,0.000612258911132813,0,
00:00:02.236,0.00441169738769531,0.00153350830078125,0.000680923461914063,0,
00:00:02.24,0.00444602966308594,0.00156784057617188,0.000646591186523438,0,
00:00:02.244,0.00445175170898438,0.00159072875976563,0.000623703002929688,0,
00:00:02.248,0.00445175170898438,0.00159072875976563,0.000623703002929688,0,
00:00:02.252,0.00444602966308594,0.00156211853027344,0.000612258911132813,0,
00:00:02.256,0.0044403076171875,0.00156211853027344,0.000600814819335938,0,
00:00:02.26,0.00445175170898438,0.00157928466796875,0.00061798095703125,0,
00:00:02.264,0.00446319580078125,0.00158500671386719,0.000640869140625,0,
00:00:02.268,0.00447463989257813,0.00159645080566406,0.000635147094726563,0,
00:00:02.272,0.00446891784667969,0.00157928466796875,0.000612258911132813,0,
00:00:02.276,0.00449180603027344,0.00164222717285156,0.00061798095703125,0,
00:00:02.28,0.00450325012207031,0.00161361694335938,0.000577926635742188,0,
00:00:02.284,0.00445175170898438,0.00155067443847656,0.000583648681640625,0,
00:00:02.288,0.0044403076171875,0.00154495239257813,0.000652313232421875,0,
00:00:02.292,0.0044403076171875,0.00154495239257813,0.000692367553710938,0,
00:00:02.296,0.00446319580078125,0.00158500671386719,0.000646591186523438,0,
00:00:02.3,0.00449752807617188,0.00158500671386719,0.000635147094726563,0,
00:00:02.304,0.00450325012207031,0.00161361694335938,0.000629425048828125,0,
00:00:02.308,0.00449752807617188,0.00158500671386719,0.000583648681640625,0,
00:00:02.312,0.00447463989257813,0.001556396484375,0.000606536865234375,0,
00:00:02.316,0.00447463989257813,0.00156784057617188,0.000640869140625,0,
00:00:02.32,0.00446319580078125,0.00153923034667969,0.000612258911132813,0,
00:00:02.324,0.00446891784667969,0.00154495239257813,0.000658035278320313,0,
00:00:02.328,0.004486083984375,0.00155067443847656,0.000646591186523438,0,
00:00:02.332,0.00449752807617188,0.00156211853027344,0.000640869140625,0,
00:00:02.336,0.0045318603515625,0.00158500671386719,0.000623703002929688,0,
00:00:02.34,0.00454902648925781,0.00167083740234375,0.000606536865234375,0,
00:00:02.344,0.00452613830566406,0.00163650512695313,0.000560760498046875,0,
00:00:02.348,0.00447463989257813,0.00151634216308594,0.000612258911132813,0,
00:00:02.352,0.004486083984375,0.00152778625488281,0.000635147094726563,0,
00:00:02.356,0.00449752807617188,0.001556396484375,0.000623703002929688,0,
00:00:02.36,0.00452613830566406,0.00163078308105469,0.000612258911132813,0,
00:00:02.364,0.00452613830566406,0.00157356262207031,0.000623703002929688,0,
00:00:02.368,0.00452613830566406,0.00160789489746094,0.000612258911132813,0,
00:00:02.372,0.004486083984375,0.001556396484375,0.000583648681640625,0,
00:00:02.376,0.00449752807617188,0.00149917602539063,0.000658035278320313,0,
00:00:02.38,0.00452041625976563,0.00153350830078125,0.000658035278320313,0,
00:00:02.384,0.0045318603515625,0.00157928466796875,0.000635147094726563,0,
00:00:02.388,0.00453758239746094,0.0016021728515625,0.000600814819335938,0,
00:00:02.392,0.00454902648925781,0.00162506103515625,0.00054931640625,0,
00:00:02.396,0.00456619262695313,0.00167655944824219,0.000583648681640625,0,
00:00:02.4,0.00449180603027344,0.00149917602539063,0.00061798095703125,0,
00:00:02.404,0.00450325012207031,0.00148773193359375,0.00066375732421875,0,
00:00:02.408,0.00452041625976563,0.00152778625488281,0.000635147094726563,0,
00:00:02.412,0.00453758239746094,0.001556396484375,0.00061798095703125,0,
00:00:02.416,0.00452613830566406,0.00157928466796875,0.000606536865234375,0,
00:00:02.42,0.00457191467285156,0.00164794921875,0.00054931640625,0,
00:00:02.424,0.00456047058105469,0.00156784057617188,0.000560760498046875,0,
00:00:02.428,0.00452041625976563,0.00149917602539063,0.00066375732421875,0,
00:00:02.432,0.00450325012207031,0.00153923034667969,0.000629425048828125,0,
00:00:02.436,0.0045318603515625,0.00157928466796875,0.000623703002929688,0,
00:00:02.44,0.00453758239746094,0.00160789489746094,0.000583648681640625,0,
00:00:02.444,0.00453758239746094,0.00157928466796875,0.000577926635742188,0,
00:00:02.448,0.0045318603515625,0.00155067443847656,0.000623703002929688,0,
00:00:02.452,0.00452613830566406,0.00152206420898438,0.000629425048828125,0,
00:00:02.456,0.00452041625976563,0.001556396484375,0.000600814819335938,0,
00:00:02.46,0.00453758239746094,0.00152778625488281,0.00061798095703125,0,
00:00:02.464,0.00454902648925781,0.00156784057617188,0.000612258911132813,0,
00:00:02.468,0.00454902648925781,0.00156784057617188,0.000600814819335938,0,
00:00:02.472,0.00454902648925781,0.00154495239257813,0.000589370727539063,0,
00:00:02.476,0.00458335876464844,0.00163650512695313,0.000566482543945313,0,
00:00:02.48,0.00455474853515625,0.00157928466796875,0.000537872314453125,0,
00:00:02.484,0.00452041625976563,0.00148773193359375,0.000658035278320313,0,
00:00:02.488,0.00452041625976563,0.0015106201171875,0.000640869140625,0,
00:00:02.492,0.00454902648925781,0.00153923034667969,0.0005950927734375,0,
00:00:02.496,0.00454902648925781,0.00157356262207031,0.000606536865234375,0,
00:00:02.5,0.00454902648925781,0.001556396484375,0.000623703002929688,0,
00:00:02.504,0.00455474853515625,0.00156211853027344,0.000606536865234375,0,
00:00:02.508,0.00456047058105469,0.00155067443847656,0.000606536865234375,0,
00:00:02.512,0.00456047058105469,0.00153350830078125,0.000577926635742188,0,
00:00:02.516,0.00456619262695313,0.00155067443847656,0.000623703002929688,0,
00:00:02.52,0.00457763671875,0.00163078308105469,0.000600814819335938,0,
00:00:02.524,0.00457191467285156,0.00163650512695313,0.000555038452148438,0,
00:00:02.528,0.00453758239746094,0.00149917602539063,0.000600814819335938,0,
00:00:02.532,0.00451469421386719,0.00145339965820313,0.000692367553710938,0,
00:00:02.536,0.00453758239746094,0.0015106201171875,0.000629425048828125,0,
00:00:02.54,0.00454902648925781,0.00153350830078125,0.000612258911132813,0,
00:00:02.544,0.00456619262695313,0.00156784057617188,0.000577926635742188,0,
00:00:02.548,0.00456047058105469,0.001556396484375,0.000606536865234375,0,
00:00:02.552,0.00456619262695313,0.00155067443847656,0.0005950927734375,0,
00:00:02.556,0.00456047058105469,0.00152206420898438,0.000600814819335938,0,
00:00:02.56,0.00457191467285156,0.00153350830078125,0.000606536865234375,0,
00:00:02.564,0.00457191467285156,0.00153350830078125,0.0005950927734375,0,
00:00:02.568,0.00457191467285156,0.00153923034667969,0.000583648681640625,0,
00:00:02.572,0.00458335876464844,0.00156211853027344,0.000577926635742188,0,
00:00:02.576,0.00463485717773438,0.00168800354003906,0.00054931640625,0,
00:00:02.58,0.00460624694824219,0.00163650512695313,0.0005035400390625,0,
00:00:02.584,0.0045318603515625,0.00148200988769531,0.0005950927734375,0,
00:00:02.588,0.00454330444335938,0.00148200988769531,0.000623703002929688,0,
00:00:02.592,0.00458335876464844,0.00156784057617188,0.00057220458984375,0,
00:00:02.596,0.00459480285644531,0.00156784057617188,0.000566482543945313,0,
00:00:02.6,0.00456047058105469,0.00153350830078125,0.000589370727539063,0,
00:00:02.604,0.00458335876464844,0.00157356262207031,0.000566482543945313,0,
00:00:02.608,0.00460624694824219,0.00157928466796875,0.000555038452148438,0,
00:00:02.612,0.00461769104003906,0.00162506103515625,0.000532150268554688,0,
00:00:02.616,0.00454902648925781,0.00156211853027344,0.000566482543945313,0,
00:00:02.62,0.00454330444335938,0.00146484375,0.000640869140625,0,
00:00:02.624,0.00456047058105469,0.0015106201171875,0.000600814819335938,0,
00:00:02.628,0.00458335876464844,0.00160789489746094,0.000560760498046875,0,
00:00:02.632,0.00465774536132813,0.00172805786132813,0.000509262084960938,0,
00:00:02.636,0.00460052490234375,0.00160789489746094,0.000463485717773438,0,
00:00:02.64,0.00452041625976563,0.00143623352050781,0.000635147094726563,0,
00:00:02.644,0.00454902648925781,0.00148773193359375,0.000635147094726563,0,
00:00:02.648,0.00456619262695313,0.00154495239257813,0.000583648681640625,0,
00:00:02.652,0.00457763671875,0.00156784057617188,0.000537872314453125,0,
00:00:02.656,0.00457763671875,0.00156211853027344,0.0005950927734375,0,
00:00:02.66,0.00458335876464844,0.00156784057617188,0.000577926635742188,0,
00:00:02.664,0.00459480285644531,0.00159645080566406,0.00052642822265625,0,
00:00:02.668,0.00458335876464844,0.00157356262207031,0.000514984130859375,0,
00:00:02.672,0.00456619262695313,0.00154495239257813,0.0005950927734375,0,
00:00:02.676,0.00458908081054688,0.00157356262207031,0.000583648681640625,0,
00:00:02.68,0.00461769104003906,0.00163650512695313,0.00057220458984375,0,
00:00:02.684,0.00458908081054688,0.00159072875976563,0.000543594360351563,0,
00:00:02.688,0.00460052490234375,0.00156211853027344,0.000532150268554688,0,
00:00:02.692,0.00463485717773438,0.00165939331054688,0.000537872314453125,0,
00:00:02.696,0.00458335876464844,0.00156784057617188,0.000589370727539063,0,
00:00:02.7,0.00456619262695313,0.00149345397949219,0.000589370727539063,0,
00:00:02.704,0.00458335876464844,0.00152778625488281,0.000589370727539063,0,
00:00:02.708,0.00458908081054688,0.00154495239257813,0.000583648681640625,0,
00:00:02.712,0.00458908081054688,0.00159072875976563,0.000566482543945313,0,
00:00:02.716,0.00464057922363281,0.00168800354003906,0.000514984130859375,0,
00:00:02.72,0.004669189453125,0.00175094604492188,0.000474929809570313,0,
00:00:02.724,0.00453758239746094,0.00143051147460938,0.00057220458984375,0,
00:00:02.728,0.00455474853515625,0.00146484375,0.000635147094726563,0,
00:00:02.732,0.00457191467285156,0.00153350830078125,0.000589370727539063,0,
00:00:02.736,0.00459480285644531,0.001556396484375,0.00057220458984375,0,
00:00:02.74,0.00461196899414063,0.00157356262207031,0.000560760498046875,0,
00:00:02.744,0.00461196899414063,0.00156784057617188,0.000543594360351563,0,
00:00:02.748,0.00460624694824219,0.00157928466796875,0.000543594360351563,0,
00:00:02.752,0.00461769104003906,0.0016021728515625,0.000543594360351563,0,
00:00:02.756,0.00461196899414063,0.00159645080566406,0.000543594360351563,0,
00:00:02.76,0.00460052490234375,0.00157356262207031,0.000537872314453125,0,
00:00:02.764,0.00460624694824219,0.00159072875976563,0.000520706176757813,0,
00:00:02.768,0.0046234130859375,0.00161361694335938,0.000514984130859375,0,
00:00:02.772,0.00460624694824219,0.00156211853027344,0.000555038452148438,0,
00:00:02.776,0.00460052490234375,0.00156784057617188,0.000532150268554688,0,
00:00:02.78,0.00461769104003906,0.00155067443847656,0.000532150268554688,0,
00:00:02.784,0.00461196899414063,0.00153350830078125,0.000537872314453125,0,
00:00:02.788,0.00464057922363281,0.00161361694335938,0.000492095947265625,0,
00:00:02.792,0.00461769104003906,0.00162506103515625,0.000497817993164063,0,
00:00:02.796,0.00461196899414063,0.00161933898925781,0.000560760498046875,0,
00:00:02.8,0.00459480285644531,0.00153923034667969,0.000532150268554688,0,
00:00:02.804,0.00460624694824219,0.00154495239257813,0.000537872314453125,0,
00:00:02.808,0.00459480285644531,0.00158500671386719,0.00052642822265625,0,
00:00:02.812,0.00461196899414063,0.00160789489746094,0.000532150268554688,0,
00:00:02.816,0.00463485717773438,0.00162506103515625,0.000520706176757813,0,
00:00:02.82,0.00463485717773438,0.00161933898925781,0.000486373901367188,0,
00:00:02.824,0.00458335876464844,0.00152778625488281,0.000509262084960938,0,
00:00:02.828,0.00458335876464844,0.00152778625488281,0.000520706176757813,0,
00:00:02.832,0.00461769104003906,0.00156211853027344,0.000514984130859375,0,
00:00:02.836,0.00461196899414063,0.00156784057617188,0.000543594360351563,0,
00:00:02.84,0.00461769104003906,0.00156784057617188,0.000532150268554688,0,
00:00:02.844,0.00462913513183594,0.00158500671386719,0.000509262084960938,0,
00:00:02.848,0.00462913513183594,0.0016021728515625,0.000520706176757813,0,
00:00:02.852,0.00465202331542969,0.00163078308105469,0.00052642822265625,0,
00:00:02.856,0.00460052490234375,0.001556396484375,0.000492095947265625,0,
00:00:02.86,0.00460624694824219,0.00158500671386719,0.000520706176757813,0,
00:00:02.864,0.0046234130859375,0.00159072875976563,0.000509262084960938,0,
00:00:02.868,0.00462913513183594,0.00159072875976563,0.000520706176757813,0,
00:00:02.872,0.00464057922363281,0.0016021728515625,0.00052642822265625,0,
00:00:02.876,0.00465202331542969,0.00163650512695313,0.000474929809570313,0,
00:00:02.88,0.0046234130859375,0.00156784057617188,0.00048065185546875,0,
00:00:02.884,0.00459480285644531,0.00153923034667969,0.00052642822265625,0,
00:00:02.888,0.00458908081054688,0.00153923034667969,0.000532150268554688,0,
00:00:02.892,0.00461769104003906,0.00155067443847656,0.000543594360351563,0,
00:00:02.896,0.00461769104003906,0.00156211853027344,0.000532150268554688,0,
00:00:02.9,0.00461196899414063,0.00156784057617188,0.000532150268554688,0,
00:00:02.904,0.00461769104003906,0.00157928466796875,0.00052642822265625,0,
00:00:02.908,0.0046234130859375,0.00157928466796875,0.000509262084960938,0,
00:00:02.912,0.00463485717773438,0.00160789489746094,0.000514984130859375,0,
00:00:02.916,0.00462913513183594,0.00159072875976563,0.000520706176757813,0,
00:00:02.92,0.00464057922363281,0.00159645080566406,0.000509262084960938,0,
00:00:02.924,0.00465202331542969,0.00167083740234375,0.000492095947265625,0,
00:00:02.928,0.00465774536132813,0.00166511535644531,0.000440597534179688,0,
00:00:02.932,0.00460052490234375,0.00151634216308594,0.000497817993164063,0,
00:00:02.936,0.00460624694824219,0.00152206420898438,0.00057220458984375,0,
00:00:02.94,0.0046234130859375,0.00155067443847656,0.000566482543945313,0,
00:00:02.944,0.00462913513183594,0.00156784057617188,0.000537872314453125,0,
00:00:02.948,0.00462913513183594,0.00159645080566406,0.000520706176757813,0,
00:00:02.952,0.00464057922363281,0.00159645080566406,0.000509262084960938,0,
00:00:02.956,0.00464630126953125,0.0016021728515625,0.00052642822265625,0,
00:00:02.96,0.00466346740722656,0.00164794921875,0.000514984130859375,0,
00:00:02.964,0.00470924377441406,0.00177383422851563,0.000457763671875,0,
00:00:02.968,0.00462913513183594,0.00161361694335938,0.000400543212890625,0,
00:00:02.972,0.00460052490234375,0.00147056579589844,0.000566482543945313,0,
00:00:02.976,0.00461769104003906,0.0015106201171875,0.0005950927734375,0,
00:00:02.98,0.0046234130859375,0.00157356262207031,0.000555038452148438,0,
00:00:02.984,0.00463485717773438,0.00159072875976563,0.000520706176757813,0,
00:00:02.988,0.00464057922363281,0.00158500671386719,0.000520706176757813,0,
00:00:02.992,0.00463485717773438,0.00159645080566406,0.000520706176757813,0,
00:00:02.996,0.00464057922363281,0.00159645080566406,0.000520706176757813,0,
00:00:03,0.00464630126953125,0.00160789489746094,0.000514984130859375,0,
00:00:03.004,0.0047149658203125,0.00177383422851563,0.000474929809570313,0,
00:00:03.008,0.00464630126953125,0.00165939331054688,0.000406265258789063,0,
00:00:03.012,0.00457191467285156,0.00149345397949219,0.000520706176757813,0,
00:00:03.016,0.00461769104003906,0.00155067443847656,0.00054931640625,0,
00:00:03.02,0.00464057922363281,0.0016021728515625,0.000555038452148438,0,
00:00:03.024,0.00464057922363281,0.00160789489746094,0.000532150268554688,0,
00:00:03.028,0.00462913513183594,0.00159072875976563,0.000537872314453125,0,
00:00:03.032,0.00462913513183594,0.00159072875976563,0.000532150268554688,0,
00:00:03.036,0.00464630126953125,0.0016021728515625,0.00052642822265625,0,
00:00:03.04,0.00465202331542969,0.00161361694335938,0.0005035400390625,0,
00:00:03.044,0.00466346740722656,0.00171089172363281,0.000446319580078125,0,
00:00:03.048,0.00464057922363281,0.00161361694335938,0.000486373901367188,0,
00:00:03.052,0.00462913513183594,0.00155067443847656,0.000583648681640625,0,
00:00:03.056,0.00465202331542969,0.00160789489746094,0.00054931640625,0,
00:00:03.06,0.00464057922363281,0.00160789489746094,0.00052642822265625,0,
00:00:03.064,0.00464057922363281,0.00159645080566406,0.00052642822265625,0,
00:00:03.068,0.00464057922363281,0.00159072875976563,0.000537872314453125,0,
00:00:03.072,0.00464630126953125,0.00161361694335938,0.000532150268554688,0,
00:00:03.076,0.00465202331542969,0.00160789489746094,0.000537872314453125,0,
00:00:03.08,0.00467491149902344,0.00163650512695313,0.000537872314453125,0,
00:00:03.084,0.0047149658203125,0.00175666809082031,0.00048065185546875,0,
00:00:03.088,0.0047149658203125,0.00176811218261719,0.0004119873046875,0,
00:00:03.092,0.00461196899414063,0.0015106201171875,0.000543594360351563,0,
00:00:03.096,0.0046234130859375,0.00153923034667969,0.000635147094726563,0,
00:00:03.1,0.00464630126953125,0.00158500671386719,0.000589370727539063,0,
00:00:03.104,0.00465202331542969,0.00161361694335938,0.000555038452148438,0,
00:00:03.108,0.00465774536132813,0.00161361694335938,0.00054931640625,0,
00:00:03.112,0.00465202331542969,0.0016021728515625,0.000560760498046875,0,
00:00:03.116,0.00465774536132813,0.00161361694335938,0.000566482543945313,0,
00:00:03.12,0.004669189453125,0.00163078308105469,0.000543594360351563,0,
00:00:03.124,0.00468063354492188,0.00168800354003906,0.000514984130859375,0,
00:00:03.128,0.00467491149902344,0.00166511535644531,0.0005035400390625,0,
00:00:03.132,0.00468063354492188,0.00164222717285156,0.000509262084960938,0,
00:00:03.136,0.00468063354492188,0.00165367126464844,0.0005950927734375,0,
00:00:03.14,0.00464630126953125,0.00156211853027344,0.00054931640625,0,
00:00:03.144,0.004669189453125,0.0016021728515625,0.000589370727539063,0,
00:00:03.148,0.004669189453125,0.00160789489746094,0.000577926635742188,0,
00:00:03.152,0.00467491149902344,0.00163650512695313,0.000555038452148438,0,
00:00:03.156,0.004669189453125,0.00164794921875,0.000560760498046875,0,
00:00:03.16,0.00470924377441406,0.0016937255859375,0.000532150268554688,0,
00:00:03.164,0.00467491149902344,0.00160789489746094,0.000555038452148438,0,
00:00:03.168,0.00467491149902344,0.00161361694335938,0.00052642822265625,0,
00:00:03.172,0.004669189453125,0.00159645080566406,0.00054931640625,0,
00:00:03.176,0.00468635559082031,0.00161933898925781,0.0005950927734375,0,
00:00:03.18,0.00469779968261719,0.00163078308105469,0.000589370727539063,0,
00:00:03.184,0.00468063354492188,0.00160789489746094,0.000555038452148438,0,
00:00:03.188,0.00468063354492188,0.00161361694335938,0.000560760498046875,0,
00:00:03.192,0.00470352172851563,0.00167083740234375,0.000560760498046875,0,
00:00:03.196,0.00474929809570313,0.00175094604492188,0.000532150268554688,0,
00:00:03.2,0.00468635559082031,0.00168228149414063,0.000514984130859375,0,
00:00:03.204,0.00462913513183594,0.00152778625488281,0.000583648681640625,0,
00:00:03.208,0.00467491149902344,0.00156211853027344,0.0005950927734375,0,
00:00:03.212,0.00468635559082031,0.00161933898925781,0.000589370727539063,0,
00:00:03.216,0.00469779968261719,0.00163650512695313,0.000583648681640625,0,
00:00:03.22,0.00469207763671875,0.00161933898925781,0.000577926635742188,0,
00:00:03.224,0.00468635559082031,0.00162506103515625,0.00057220458984375,0,
00:00:03.228,0.00469779968261719,0.00165367126464844,0.000566482543945313,0,
00:00:03.232,0.00474929809570313,0.00176239013671875,0.000520706176757813,0,
00:00:03.236,0.0047149658203125,0.00167655944824219,0.000497817993164063,0,
00:00:03.24,0.00464630126953125,0.00156211853027344,0.000612258911132813,0,
00:00:03.244,0.00466346740722656,0.00158500671386719,0.0005950927734375,0,
00:00:03.248,0.00468063354492188,0.0016021728515625,0.000577926635742188,0,
00:00:03.252,0.00470352172851563,0.00161933898925781,0.0005950927734375,0,
00:00:03.256,0.00469779968261719,0.00162506103515625,0.000600814819335938,0,
00:00:03.26,0.00469779968261719,0.00163078308105469,0.0005950927734375,0,
00:00:03.264,0.00469779968261719,0.00163078308105469,0.000577926635742188,0,
00:00:03.268,0.00469779968261719,0.00162506103515625,0.00057220458984375,0,
00:00:03.272,0.00470924377441406,0.00165367126464844,0.000577926635742188,0,
00:00:03.276,0.00480079650878906,0.00183677673339844,0.000532150268554688,0,
00:00:03.28,0.00474357604980469,0.0017852783203125,0.000417709350585938,0,
00:00:03.284,0.00462913513183594,0.0015106201171875,0.000583648681640625,0,
00:00:03.288,0.004669189453125,0.00157356262207031,0.00061798095703125,0,
00:00:03.292,0.00470924377441406,0.00164794921875,0.000612258911132813,0,
00:00:03.296,0.00470924377441406,0.00164794921875,0.000600814819335938,0,
00:00:03.3,0.00472640991210938,0.00167083740234375,0.000635147094726563,0,
00:00:03.304,0.00472068786621094,0.00165939331054688,0.000589370727539063,0,
00:00:03.308,0.00469207763671875,0.00161933898925781,0.0005950927734375,0,
00:00:03.312,0.00470924377441406,0.00166511535644531,0.0005950927734375,0,
00:00:03.316,0.0047149658203125,0.00163078308105469,0.000583648681640625,0,
00:00:03.32,0.00470352172851563,0.00163078308105469,0.00057220458984375,0,
00:00:03.324,0.00469207763671875,0.00162506103515625,0.000589370727539063,0,
00:00:03.328,0.00470352172851563,0.00167083740234375,0.000589370727539063,0,
00:00:03.332,0.00472068786621094,0.00168800354003906,0.000577926635742188,0,
00:00:03.336,0.0047149658203125,0.00166511535644531,0.000566482543945313,0,
00:00:03.34,0.00470352172851563,0.00163078308105469,0.000589370727539063,0,
00:00:03.344,0.00468063354492188,0.00163078308105469,0.0005950927734375,0,
00:00:03.348,0.00470924377441406,0.00164794921875,0.000589370727539063,0,
00:00:03.352,0.00472068786621094,0.00167655944824219,0.000583648681640625,0,
00:00:03.356,0.00472640991210938,0.00171661376953125,0.000583648681640625,0,
00:00:03.36,0.0047149658203125,0.00167083740234375,0.000583648681640625,0,
00:00:03.364,0.00470352172851563,0.00163078308105469,0.0005950927734375,0,
00:00:03.368,0.00469207763671875,0.00164794921875,0.000577926635742188,0,
00:00:03.372,0.00469207763671875,0.00165939331054688,0.000589370727539063,0,
00:00:03.376,0.00470352172851563,0.00165939331054688,0.000589370727539063,0,
00:00:03.38,0.0047149658203125,0.00167655944824219,0.000589370727539063,0,
00:00:03.384,0.0047149658203125,0.0016937255859375,0.000577926635742188,0,
00:00:03.388,0.00470352172851563,0.00167083740234375,0.000583648681640625,0,
00:00:03.392,0.00470924377441406,0.00168228149414063,0.000583648681640625,0,
00:00:03.396,0.0047149658203125,0.00169944763183594,0.000583648681640625,0,
00:00:03.4,0.00472640991210938,0.0016937255859375,0.000600814819335938,0,
00:00:03.404,0.00474357604980469,0.00172233581542969,0.000577926635742188,0,
00:00:03.408,0.0047149658203125,0.00170516967773438,0.000532150268554688,0,
00:00:03.412,0.00465774536132813,0.00161361694335938,0.000623703002929688,0,
00:00:03.416,0.00469207763671875,0.00167083740234375,0.000623703002929688,0,
00:00:03.42,0.00474357604980469,0.00172805786132813,0.000589370727539063,0,
00:00:03.424,0.00472640991210938,0.00169944763183594,0.000583648681640625,0,
00:00:03.428,0.00470352172851563,0.00166511535644531,0.000623703002929688,0,
00:00:03.432,0.00470924377441406,0.00170516967773438,0.000589370727539063,0,
00:00:03.436,0.00468635559082031,0.00167083740234375,0.000612258911132813,0,
00:00:03.44,0.00472640991210938,0.00169944763183594,0.000600814819335938,0,
00:00:03.444,0.00475502014160156,0.00174522399902344,0.000589370727539063,0,
00:00:03.448,0.0047149658203125,0.0016937255859375,0.000583648681640625,0,
00:00:03.452,0.00466346740722656,0.00168228149414063,0.000600814819335938,0,
00:00:03.456,0.00468063354492188,0.0016937255859375,0.00057220458984375,0,
00:00:03.46,0.00470352172851563,0.00168800354003906,0.00066375732421875,0,
00:00:03.464,0.00470924377441406,0.00171661376953125,0.000612258911132813,0,
00:00:03.468,0.0047149658203125,0.00169944763183594,0.0005950927734375,0,
00:00:03.472,0.00470352172851563,0.00167083740234375,0.000600814819335938,0,
00:00:03.476,0.00469207763671875,0.00168800354003906,0.000669479370117188,0,
00:00:03.48,0.00470352172851563,0.00172805786132813,0.000635147094726563,0,
00:00:03.484,0.00469207763671875,0.00170516967773438,0.00061798095703125,0,
00:00:03.488,0.00465774536132813,0.00163650512695313,0.000606536865234375,0,
00:00:03.492,0.00468635559082031,0.00168800354003906,0.00061798095703125,0,
00:00:03.496,0.00469207763671875,0.00174522399902344,0.000623703002929688,0,
00:00:03.5,0.00470352172851563,0.001739501953125,0.00061798095703125,0,
00:00:03.504,0.00470924377441406,0.00171661376953125,0.000600814819335938,0,
00:00:03.508,0.0047149658203125,0.00172233581542969,0.00061798095703125,0,
00:00:03.512,0.00468635559082031,0.0016937255859375,0.000646591186523438,0,
00:00:03.516,0.00469207763671875,0.00171089172363281,0.000635147094726563,0,
00:00:03.52,0.00469779968261719,0.00171661376953125,0.000612258911132813,0,
00:00:03.524,0.00470924377441406,0.00172805786132813,0.000623703002929688,0,
00:00:03.528,0.0047149658203125,0.00176239013671875,0.000606536865234375,0,
00:00:03.532,0.00468635559082031,0.00171661376953125,0.000612258911132813,0,
00:00:03.536,0.00469779968261719,0.00171661376953125,0.000600814819335938,0,
00:00:03.54,0.00469779968261719,0.00169944763183594,0.0005950927734375,0,
00:00:03.544,0.00470352172851563,0.00173377990722656,0.000652313232421875,0,
00:00:03.548,0.00470924377441406,0.00174522399902344,0.000646591186523438,0,
00:00:03.552,0.0047149658203125,0.001739501953125,0.000652313232421875,0,
00:00:03.556,0.00469207763671875,0.00169944763183594,0.000646591186523438,0,
00:00:03.56,0.00470924377441406,0.00171089172363281,0.000635147094726563,0,
00:00:03.564,0.00468635559082031,0.00171661376953125,0.000606536865234375,0,
00:00:03.568,0.00470924377441406,0.00168800354003906,0.000646591186523438,0,
00:00:03.572,0.00469779968261719,0.00172233581542969,0.000680923461914063,0,
00:00:03.576,0.00470924377441406,0.00176239013671875,0.00061798095703125,0,
00:00:03.58,0.00468635559082031,0.0016937255859375,0.00066375732421875,0,
00:00:03.584,0.00467491149902344,0.00165939331054688,0.000640869140625,0,
00:00:03.588,0.00468635559082031,0.00169944763183594,0.000646591186523438,0,
00:00:03.592,0.0047149658203125,0.00172805786132813,0.000640869140625,0,
00:00:03.596,0.0047149658203125,0.001739501953125,0.00066375732421875,0,
00:00:03.6,0.0047149658203125,0.00174522399902344,0.000646591186523438,0,
00:00:03.604,0.00469207763671875,0.00167655944824219,0.000646591186523438,0,
00:00:03.608,0.00470352172851563,0.00169944763183594,0.000646591186523438,0,
00:00:03.612,0.00470352172851563,0.00171089172363281,0.000669479370117188,0,
00:00:03.616,0.00470924377441406,0.00170516967773438,0.00066375732421875,0,
00:00:03.62,0.00470924377441406,0.00169944763183594,0.000658035278320313,0,
00:00:03.624,0.00470352172851563,0.00170516967773438,0.000652313232421875,0,
00:00:03.628,0.0047149658203125,0.00173377990722656,0.000635147094726563,0,
00:00:03.632,0.00470352172851563,0.00170516967773438,0.000646591186523438,0,
00:00:03.636,0.00470924377441406,0.00172233581542969,0.000652313232421875,0,
00:00:03.64,0.00470924377441406,0.00170516967773438,0.000640869140625,0,
00:00:03.644,0.00473785400390625,0.00175666809082031,0.000640869140625,0,
00:00:03.648,0.00474357604980469,0.00172805786132813,0.000646591186523438,0,
00:00:03.652,0.00469779968261719,0.00168800354003906,0.000646591186523438,0,
00:00:03.656,0.00470924377441406,0.00175666809082031,0.000658035278320313,0,
00:00:03.66,0.00470924377441406,0.00170516967773438,0.000658035278320313,0,
00:00:03.664,0.00470924377441406,0.00167655944824219,0.000652313232421875,0,
00:00:03.668,0.0047149658203125,0.00168800354003906,0.000675201416015625,0,
00:00:03.672,0.00469779968261719,0.00167083740234375,0.000698089599609375,0,
00:00:03.676,0.00470924377441406,0.00170516967773438,0.000675201416015625,0,
00:00:03.68,0.00472640991210938,0.00173377990722656,0.000658035278320313,0,
00:00:03.684,0.00473213195800781,0.00177383422851563,0.000652313232421875,0,
00:00:03.688,0.00470924377441406,0.0016937255859375,0.000680923461914063,0,
00:00:03.692,0.00469207763671875,0.00165939331054688,0.000692367553710938,0,
00:00:03.696,0.00470352172851563,0.00166511535644531,0.000675201416015625,0,
00:00:03.7,0.0047149658203125,0.00171089172363281,0.000680923461914063,0,
00:00:03.704,0.00472640991210938,0.00171661376953125,0.000675201416015625,0,
00:00:03.708,0.0047149658203125,0.00169944763183594,0.000675201416015625,0,
00:00:03.712,0.00470352172851563,0.0016937255859375,0.000680923461914063,0,
00:00:03.716,0.00470924377441406,0.00169944763183594,0.00066375732421875,0,
00:00:03.72,0.00473785400390625,0.00174522399902344,0.000652313232421875,0,
00:00:03.724,0.00475502014160156,0.00179100036621094,0.000640869140625,0,
00:00:03.728,0.00469207763671875,0.00168800354003906,0.000640869140625,0,
00:00:03.732,0.00469207763671875,0.00164222717285156,0.000715255737304688,0,
00:00:03.736,0.00469779968261719,0.00165939331054688,0.000692367553710938,0,
00:00:03.74,0.00472068786621094,0.00169944763183594,0.0006866455078125,0,
00:00:03.744,0.00470924377441406,0.00170516967773438,0.00066375732421875,0,
00:00:03.748,0.00472068786621094,0.00172233581542969,0.00066375732421875,0,
00:00:03.752,0.00473785400390625,0.00171661376953125,0.000675201416015625,0,
00:00:03.756,0.00474357604980469,0.00176239013671875,0.000658035278320313,0,
00:00:03.76,0.00473785400390625,0.00171661376953125,0.00066375732421875,0,
00:00:03.764,0.00470924377441406,0.0016937255859375,0.000658035278320313,0,
00:00:03.768,0.00472068786621094,0.0016937255859375,0.000703811645507813,0,
00:00:03.772,0.0047607421875,0.00175666809082031,0.000703811645507813,0,
00:00:03.776,0.0047607421875,0.00180244445800781,0.000640869140625,0,
00:00:03.78,0.00470924377441406,0.00168228149414063,0.000629425048828125,0,
00:00:03.784,0.0047149658203125,0.00165939331054688,0.000720977783203125,0,
00:00:03.788,0.0047149658203125,0.00165367126464844,0.000703811645507813,0,
00:00:03.792,0.0047149658203125,0.00171089172363281,0.0006866455078125,0,
00:00:03.796,0.0047149658203125,0.00169944763183594,0.000680923461914063,0,
00:00:03.8,0.00474357604980469,0.00172805786132813,0.0006866455078125,0,
00:00:03.804,0.00476646423339844,0.00181961059570313,0.000635147094726563,0,
00:00:03.808,0.00473213195800781,0.001739501953125,0.000646591186523438,0,
00:00:03.812,0.00470924377441406,0.00165939331054688,0.000720977783203125,0,
00:00:03.816,0.00472068786621094,0.00167083740234375,0.000703811645507813,0,
00:00:03.82,0.00472640991210938,0.00171089172363281,0.000698089599609375,0,
00:00:03.824,0.00472068786621094,0.00170516967773438,0.000680923461914063,0,
00:00:03.828,0.00473213195800781,0.00171089172363281,0.0006866455078125,0,
00:00:03.832,0.00474929809570313,0.00174522399902344,0.000692367553710938,0,
00:00:03.836,0.0047607421875,0.00174522399902344,0.000675201416015625,0,
00:00:03.84,0.00474929809570313,0.001739501953125,0.000646591186523438,0,
00:00:03.844,0.00472068786621094,0.00170516967773438,0.000680923461914063,0,
00:00:03.848,0.00472068786621094,0.00169944763183594,0.00070953369140625,0,
00:00:03.852,0.00473213195800781,0.00170516967773438,0.000698089599609375,0,
00:00:03.856,0.00473785400390625,0.00173377990722656,0.0006866455078125,0,
00:00:03.86,0.00473213195800781,0.001739501953125,0.000669479370117188,0,
00:00:03.864,0.00473785400390625,0.00168800354003906,0.000692367553710938,0,
00:00:03.868,0.0047607421875,0.00175094604492188,0.000692367553710938,0,
00:00:03.872,0.00477218627929688,0.00177383422851563,0.000652313232421875,0,
00:00:03.876,0.00474357604980469,0.00172233581542969,0.000658035278320313,0,
00:00:03.88,0.00473213195800781,0.00170516967773438,0.000692367553710938,0,
00:00:03.884,0.00473785400390625,0.0016937255859375,0.000715255737304688,0,
00:00:03.888,0.00474357604980469,0.00171661376953125,0.00070953369140625,0,
00:00:03.892,0.00474357604980469,0.00171661376953125,0.000669479370117188,0,
00:00:03.896,0.00474929809570313,0.00172233581542969,0.00070953369140625,0,
00:00:03.9,0.00474929809570313,0.00172805786132813,0.000703811645507813,0,
00:00:03.904,0.00476646423339844,0.00176239013671875,0.000669479370117188,0,
00:00:03.908,0.0047607421875,0.00179672241210938,0.000658035278320313,0,
00:00:03.912,0.00473785400390625,0.0016937255859375,0.000675201416015625,0,
00:00:03.916,0.00472068786621094,0.00166511535644531,0.00070953369140625,0,
00:00:03.92,0.00472640991210938,0.00169944763183594,0.000738143920898438,0,
00:00:03.924,0.00474357604980469,0.00171661376953125,0.000732421875,0,
00:00:03.928,0.00475502014160156,0.00171661376953125,0.000720977783203125,0,
00:00:03.932,0.00472640991210938,0.00172805786132813,0.000715255737304688,0,
00:00:03.936,0.00473213195800781,0.00172233581542969,0.00070953369140625,0,
00:00:03.94,0.00474929809570313,0.00172805786132813,0.000698089599609375,0,
00:00:03.944,0.00475502014160156,0.00175094604492188,0.0006866455078125,0,
00:00:03.948,0.00478363037109375,0.00179100036621094,0.00070953369140625,0,
00:00:03.952,0.00478935241699219,0.00182533264160156,0.000680923461914063,0,
00:00:03.956,0.00473213195800781,0.00169944763183594,0.0006866455078125,0,
00:00:03.96,0.0047149658203125,0.00165367126464844,0.000738143920898438,0,
00:00:03.964,0.00472068786621094,0.0016937255859375,0.000726699829101563,0,
00:00:03.968,0.00473213195800781,0.0016937255859375,0.000732421875,0,
00:00:03.972,0.00473785400390625,0.00171661376953125,0.000726699829101563,0,
00:00:03.976,0.00474357604980469,0.00171661376953125,0.000720977783203125,0,
00:00:03.98,0.00473213195800781,0.00171089172363281,0.00070953369140625,0,
00:00:03.984,0.00474357604980469,0.00172233581542969,0.000703811645507813,0,
00:00:03.988,0.00475502014160156,0.00175666809082031,0.000692367553710938,0,
00:00:03.992,0.00478363037109375,0.0018310546875,0.0006866455078125,0,
00:00:03.996,0.00482368469238281,0.001922607421875,0.000646591186523438,0,
00:00:04,0.0047149658203125,0.00170516967773438,0.000669479370117188,0,
00:00:04.004,0.00468635559082031,0.0016021728515625,0.000795364379882813,0,
00:00:04.008,0.00472068786621094,0.00165939331054688,0.0007781982421875,0,
00:00:04.012,0.00473213195800781,0.00170516967773438,0.000738143920898438,0,
00:00:04.016,0.00473785400390625,0.00172233581542969,0.000743865966796875,0,
00:00:04.02,0.0047607421875,0.00175666809082031,0.000720977783203125,0,
00:00:04.024,0.00478935241699219,0.00184822082519531,0.000675201416015625,0,
00:00:04.028,0.00481224060058594,0.00191688537597656,0.000589370727539063,0,
00:00:04.032,0.0047149658203125,0.00161361694335938,0.000715255737304688,0,
00:00:04.036,0.00468063354492188,0.00163078308105469,0.000795364379882813,0,
00:00:04.04,0.00472640991210938,0.00171661376953125,0.0007781982421875,0,
00:00:04.044,0.00473213195800781,0.00175666809082031,0.000732421875,0,
00:00:04.048,0.00468635559082031,0.00166511535644531,0.00075531005859375,0,
00:00:04.052,0.00473213195800781,0.00170516967773438,0.000766754150390625,0,
00:00:04.056,0.00473785400390625,0.00172805786132813,0.000749588012695313,0,
00:00:04.06,0.00474357604980469,0.00172233581542969,0.00075531005859375,0,
00:00:04.064,0.00472068786621094,0.00170516967773438,0.000732421875,0,
00:00:04.068,0.00472068786621094,0.00170516967773438,0.000732421875,0,
00:00:04.072,0.00473785400390625,0.00173377990722656,0.000743865966796875,0,
00:00:04.076,0.00474929809570313,0.00176239013671875,0.000732421875,0,
00:00:04.08,0.00474929809570313,0.00175666809082031,0.00070953369140625,0,
00:00:04.084,0.00473213195800781,0.00174522399902344,0.000720977783203125,0,
00:00:04.088,0.00472640991210938,0.00172805786132813,0.000761032104492188,0,
00:00:04.092,0.00472640991210938,0.00170516967773438,0.000761032104492188,0,
00:00:04.096,0.00472640991210938,0.001739501953125,0.000761032104492188,0,
00:00:04.1,0.00473785400390625,0.00176239013671875,0.000732421875,0,
00:00:04.104,0.00473213195800781,0.00174522399902344,0.00070953369140625,0,
00:00:04.108,0.00474357604980469,0.00176811218261719,0.00070953369140625,0,
00:00:04.112,0.00472640991210938,0.001739501953125,0.00075531005859375,0,
00:00:04.116,0.00473213195800781,0.00171089172363281,0.000766754150390625,0,
00:00:04.12,0.0047149658203125,0.0016937255859375,0.000789642333984375,0,
00:00:04.124,0.0047149658203125,0.0016937255859375,0.0007781982421875,0,
00:00:04.128,0.00472640991210938,0.00172805786132813,0.000766754150390625,0,
00:00:04.132,0.00473785400390625,0.00175094604492188,0.00075531005859375,0,
00:00:04.136,0.00474929809570313,0.00181388854980469,0.000738143920898438,0,
00:00:04.14,0.00475502014160156,0.00186538696289063,0.000703811645507813,0,
00:00:04.144,0.00472640991210938,0.00172233581542969,0.00070953369140625,0,
00:00:04.148,0.00468635559082031,0.00164222717285156,0.000806808471679688,0,
00:00:04.152,0.00470352172851563,0.0016937255859375,0.000829696655273438,0,
00:00:04.156,0.00472068786621094,0.00173377990722656,0.000772476196289063,0,
00:00:04.16,0.00470352172851563,0.001739501953125,0.00075531005859375,0,
00:00:04.164,0.00472640991210938,0.001739501953125,0.000766754150390625,0,
00:00:04.168,0.00472640991210938,0.00172805786132813,0.000772476196289063,0,
00:00:04.172,0.00472068786621094,0.00172805786132813,0.0007781982421875,0,
00:00:04.176,0.00472068786621094,0.00177383422851563,0.000766754150390625,0,
00:00:04.18,0.00473213195800781,0.00180244445800781,0.00075531005859375,0,
00:00:04.184,0.00473213195800781,0.00177383422851563,0.00070953369140625,0,
00:00:04.188,0.00468063354492188,0.00167655944824219,0.0007781982421875,0,
00:00:04.192,0.0047149658203125,0.00173377990722656,0.000783920288085938,0,
00:00:04.196,0.0047149658203125,0.00174522399902344,0.000766754150390625,0,
00:00:04.2,0.00470924377441406,0.00173377990722656,0.000772476196289063,0,
00:00:04.204,0.0047149658203125,0.001739501953125,0.000789642333984375,0,
00:00:04.208,0.00470924377441406,0.00174522399902344,0.0007781982421875,0,
00:00:04.212,0.00472640991210938,0.00175094604492188,0.000772476196289063,0,
00:00:04.216,0.0047149658203125,0.00176239013671875,0.000743865966796875,0,
00:00:04.22,0.00472640991210938,0.00182533264160156,0.000703811645507813,0,
00:00:04.224,0.00472640991210938,0.00179100036621094,0.00075531005859375,0,
00:00:04.228,0.00468635559082031,0.0016937255859375,0.000812530517578125,0,
00:00:04.232,0.00468063354492188,0.00170516967773438,0.000806808471679688,0,
00:00:04.236,0.00469779968261719,0.001739501953125,0.000789642333984375,0,
00:00:04.24,0.00469779968261719,0.00175666809082031,0.000772476196289063,0,
00:00:04.244,0.00470924377441406,0.00177383422851563,0.000761032104492188,0,
00:00:04.248,0.00473785400390625,0.00181388854980469,0.000732421875,0,
00:00:04.252,0.0047149658203125,0.0017852783203125,0.000715255737304688,0,
00:00:04.256,0.00466346740722656,0.00169944763183594,0.000795364379882813,0,
00:00:04.26,0.00467491149902344,0.00172805786132813,0.000835418701171875,0,
00:00:04.264,0.00469207763671875,0.00172233581542969,0.000806808471679688,0,
00:00:04.268,0.00469207763671875,0.00172805786132813,0.000795364379882813,0,
00:00:04.272,0.00470352172851563,0.001739501953125,0.000795364379882813,0,
00:00:04.276,0.00469207763671875,0.00175666809082031,0.000789642333984375,0,
00:00:04.28,0.00469207763671875,0.00176239013671875,0.000789642333984375,0,
00:00:04.284,0.00469207763671875,0.00175666809082031,0.0007781982421875,0,
00:00:04.288,0.00473785400390625,0.00184822082519531,0.000749588012695313,0,
00:00:04.292,0.0047149658203125,0.00184822082519531,0.000680923461914063,0,
00:00:04.296,0.004669189453125,0.00168228149414063,0.000795364379882813,0,
00:00:04.3,0.00469207763671875,0.00169944763183594,0.000823974609375,0,
00:00:04.304,0.00468635559082031,0.00174522399902344,0.000783920288085938,0,
00:00:04.308,0.00468635559082031,0.00175666809082031,0.000806808471679688,0,
00:00:04.312,0.00469207763671875,0.00176811218261719,0.000806808471679688,0,
00:00:04.316,0.00468063354492188,0.00175666809082031,0.0007781982421875,0,
00:00:04.32,0.00472068786621094,0.00184822082519531,0.000772476196289063,0,
00:00:04.324,0.0047149658203125,0.00181388854980469,0.000743865966796875,0,
00:00:04.328,0.00465202331542969,0.00166511535644531,0.000761032104492188,0,
00:00:04.332,0.00465774536132813,0.00170516967773438,0.00084686279296875,0,
00:00:04.336,0.00467491149902344,0.001739501953125,0.000823974609375,0,
00:00:04.34,0.004669189453125,0.00175094604492188,0.0007781982421875,0,
00:00:04.344,0.00468063354492188,0.00175094604492188,0.000789642333984375,0,
00:00:04.348,0.00468635559082031,0.00176239013671875,0.000806808471679688,0,
00:00:04.352,0.00468635559082031,0.00176811218261719,0.000795364379882813,0,
00:00:04.356,0.0047149658203125,0.0017852783203125,0.000761032104492188,0,
00:00:04.36,0.00474357604980469,0.00189399719238281,0.000766754150390625,0,
00:00:04.364,0.00466346740722656,0.00173377990722656,0.000761032104492188,0,
00:00:04.368,0.00464630126953125,0.00165939331054688,0.000835418701171875,0,
00:00:04.372,0.004669189453125,0.00172805786132813,0.000818252563476563,0,
00:00:04.376,0.00468063354492188,0.001739501953125,0.00080108642578125,0,
00:00:04.38,0.00468635559082031,0.00174522399902344,0.000795364379882813,0,
00:00:04.384,0.00469207763671875,0.00175094604492188,0.000795364379882813,0,
00:00:04.388,0.004669189453125,0.00176811218261719,0.000806808471679688,0,
00:00:04.392,0.00468635559082031,0.00175666809082031,0.00080108642578125,0,
00:00:04.396,0.00469207763671875,0.00176811218261719,0.000761032104492188,0,
00:00:04.4,0.00470924377441406,0.00181961059570313,0.00075531005859375,0,
00:00:04.404,0.00470924377441406,0.00181388854980469,0.000795364379882813,0,
00:00:04.408,0.004669189453125,0.00171661376953125,0.000835418701171875,0,
00:00:04.412,0.00466346740722656,0.00172233581542969,0.00084686279296875,0,
00:00:04.416,0.00468635559082031,0.001739501953125,0.000806808471679688,0,
00:00:04.42,0.00468063354492188,0.00174522399902344,0.000806808471679688,0,
00:00:04.424,0.004669189453125,0.00174522399902344,0.000812530517578125,0,
00:00:04.428,0.00468063354492188,0.00175094604492188,0.000812530517578125,0,
00:00:04.432,0.00468635559082031,0.00176811218261719,0.000795364379882813,0,
00:00:04.436,0.00469779968261719,0.00179672241210938,0.000766754150390625,0,
00:00:04.44,0.00473213195800781,0.00186538696289063,0.000749588012695313,0,
00:00:04.444,0.00468635559082031,0.00177955627441406,0.000772476196289063,0,
00:00:04.448,0.00465774536132813,0.0016937255859375,0.000835418701171875,0,
00:00:04.452,0.00467491149902344,0.00176811218261719,0.000829696655273438,0,
00:00:04.456,0.00469207763671875,0.00176239013671875,0.000823974609375,0,
00:00:04.46,0.00466346740722656,0.00172805786132813,0.000829696655273438,0,
00:00:04.464,0.00466346740722656,0.00175094604492188,0.000818252563476563,0,
00:00:04.468,0.00470924377441406,0.00180244445800781,0.00080108642578125,0,
00:00:04.472,0.00473785400390625,0.00188255310058594,0.000726699829101563,0,
00:00:04.476,0.00465202331542969,0.00174522399902344,0.000766754150390625,0,
00:00:04.48,0.00463485717773438,0.00166511535644531,0.000875473022460938,0,
00:00:04.484,0.004669189453125,0.00173377990722656,0.000864028930664063,0,
00:00:04.488,0.00467491149902344,0.00176811218261719,0.000841140747070313,0,
00:00:04.492,0.00467491149902344,0.00177383422851563,0.000829696655273438,0,
00:00:04.496,0.004669189453125,0.00176811218261719,0.000806808471679688,0,
00:00:04.5,0.00466346740722656,0.00176811218261719,0.00080108642578125,0,
00:00:04.504,0.00472068786621094,0.00184822082519531,0.000812530517578125,0,
00:00:04.508,0.00475502014160156,0.001922607421875,0.000749588012695313,0,
00:00:04.512,0.00464630126953125,0.00168800354003906,0.000766754150390625,0,
00:00:04.516,0.00461769104003906,0.00165939331054688,0.00091552734375,0,
00:00:04.52,0.00465774536132813,0.00175094604492188,0.000852584838867188,0,
00:00:04.524,0.004669189453125,0.0017852783203125,0.000823974609375,0,
00:00:04.528,0.004669189453125,0.00176811218261719,0.000829696655273438,0,
00:00:04.532,0.00466346740722656,0.00175666809082031,0.000823974609375,0,
00:00:04.536,0.00465774536132813,0.00174522399902344,0.000823974609375,0,
00:00:04.54,0.00467491149902344,0.00176811218261719,0.00080108642578125,0,
00:00:04.544,0.00467491149902344,0.00179100036621094,0.000783920288085938,0,
00:00:04.548,0.00465774536132813,0.00177383422851563,0.000806808471679688,0,
00:00:04.552,0.00467491149902344,0.0017852783203125,0.000823974609375,0,
00:00:04.556,0.00466346740722656,0.00180244445800781,0.000818252563476563,0,
00:00:04.56,0.004669189453125,0.00175094604492188,0.000812530517578125,0,
00:00:04.564,0.00465774536132813,0.00176239013671875,0.000841140747070313,0,
00:00:04.568,0.00465774536132813,0.00176811218261719,0.000835418701171875,0,
00:00:04.572,0.00466346740722656,0.00177383422851563,0.000829696655273438,0,
00:00:04.576,0.00465202331542969,0.00176239013671875,0.000829696655273438,0,
00:00:04.58,0.00466346740722656,0.0017852783203125,0.000795364379882813,0,
00:00:04.584,0.00469207763671875,0.00185966491699219,0.00080108642578125,0,
00:00:04.588,0.00469779968261719,0.00185394287109375,0.000806808471679688,0,
00:00:04.592,0.00469779968261719,0.00181961059570313,0.000783920288085938,0,
00:00:04.596,0.00465774536132813,0.00172805786132813,0.000858306884765625,0,
00:00:04.6,0.00461769104003906,0.00167655944824219,0.000875473022460938,0,
00:00:04.604,0.00465202331542969,0.00174522399902344,0.000875473022460938,0,
00:00:04.608,0.00465774536132813,0.00176811218261719,0.0008697509765625,0,
00:00:04.612,0.00466346740722656,0.00176239013671875,0.000864028930664063,0,
00:00:04.616,0.00465774536132813,0.00176239013671875,0.000852584838867188,0,
00:00:04.62,0.00468063354492188,0.00180244445800781,0.000829696655273438,0,
00:00:04.624,0.00472068786621094,0.00186538696289063,0.000812530517578125,0,
00:00:04.628,0.00469207763671875,0.0018310546875,0.000783920288085938,0,
00:00:04.632,0.00462913513183594,0.00175094604492188,0.000823974609375,0,
00:00:04.636,0.00461769104003906,0.00172233581542969,0.000875473022460938,0,
00:00:04.64,0.0046234130859375,0.00176239013671875,0.000841140747070313,0,
00:00:04.644,0.00465774536132813,0.00176811218261719,0.000852584838867188,0,
00:00:04.648,0.00465202331542969,0.00175666809082031,0.000886917114257813,0,
00:00:04.652,0.00465202331542969,0.00175666809082031,0.000864028930664063,0,
00:00:04.656,0.00466346740722656,0.00176811218261719,0.00084686279296875,0,
00:00:04.66,0.00465202331542969,0.00177383422851563,0.00084686279296875,0,
00:00:04.664,0.00466346740722656,0.00179100036621094,0.000835418701171875,0,
00:00:04.668,0.004669189453125,0.00179100036621094,0.000818252563476563,0,
00:00:04.672,0.00465774536132813,0.00177955627441406,0.000818252563476563,0,
00:00:04.676,0.00467491149902344,0.00180816650390625,0.000841140747070313,0,
00:00:04.68,0.004669189453125,0.0018310546875,0.000795364379882813,0,
00:00:04.684,0.00465774536132813,0.0017852783203125,0.000823974609375,0,
00:00:04.688,0.004669189453125,0.00177955627441406,0.000875473022460938,0,
00:00:04.692,0.00465774536132813,0.00176811218261719,0.0008697509765625,0,
00:00:04.696,0.004669189453125,0.00179100036621094,0.000835418701171875,0,
00:00:04.7,0.00466346740722656,0.00175666809082031,0.000881195068359375,0,
00:00:04.704,0.00464057922363281,0.00173377990722656,0.000875473022460938,0,
00:00:04.708,0.00463485717773438,0.00174522399902344,0.000852584838867188,0,
00:00:04.712,0.00464630126953125,0.0017852783203125,0.000875473022460938,0,
00:00:04.716,0.00462913513183594,0.00175666809082031,0.000835418701171875,0,
00:00:04.72,0.004669189453125,0.00179100036621094,0.000829696655273438,0,
00:00:04.724,0.00468063354492188,0.0018310546875,0.000864028930664063,0,
00:00:04.728,0.00465202331542969,0.00182533264160156,0.000823974609375,0,
00:00:04.732,0.00464057922363281,0.00175094604492188,0.000841140747070313,0,
00:00:04.736,0.00463485717773438,0.00174522399902344,0.000898361206054688,0,
00:00:04.74,0.0046234130859375,0.00176239013671875,0.000864028930664063,0,
00:00:04.744,0.00465202331542969,0.00176239013671875,0.000852584838867188,0,
00:00:04.748,0.00465202331542969,0.00176811218261719,0.000858306884765625,0,
00:00:04.752,0.00465774536132813,0.0017852783203125,0.000852584838867188,0,
00:00:04.756,0.00465202331542969,0.00177383422851563,0.000858306884765625,0,
00:00:04.76,0.00464630126953125,0.00179100036621094,0.000835418701171875,0,
00:00:04.764,0.00465202331542969,0.00180244445800781,0.000841140747070313,0,
00:00:04.768,0.00463485717773438,0.00176239013671875,0.000864028930664063,0,
00:00:04.772,0.00461769104003906,0.00175094604492188,0.000881195068359375,0,
00:00:04.776,0.00466346740722656,0.00177955627441406,0.000858306884765625,0,
00:00:04.78,0.00468063354492188,0.00184822082519531,0.000858306884765625,0,
00:00:04.784,0.00465774536132813,0.00181388854980469,0.000806808471679688,0,
00:00:04.788,0.00460624694824219,0.00172233581542969,0.0008697509765625,0,
00:00:04.792,0.00462913513183594,0.00174522399902344,0.00089263916015625,0,
00:00:04.796,0.00464630126953125,0.00177383422851563,0.000864028930664063,0,
00:00:04.8,0.00466346740722656,0.00181961059570313,0.000818252563476563,0,
00:00:04.804,0.004669189453125,0.00184249877929688,0.00080108642578125,0,
00:00:04.808,0.00459480285644531,0.00174522399902344,0.000858306884765625,0,
00:00:04.812,0.00464057922363281,0.00176811218261719,0.000904083251953125,0,
00:00:04.816,0.00462913513183594,0.00176811218261719,0.00089263916015625,0,
00:00:04.82,0.00462913513183594,0.00177955627441406,0.000875473022460938,0,
00:00:04.824,0.0046234130859375,0.001739501953125,0.000886917114257813,0,
00:00:04.828,0.00464057922363281,0.00177383422851563,0.00089263916015625,0,
00:00:04.832,0.00463485717773438,0.0017852783203125,0.0008697509765625,0,
00:00:04.836,0.0046234130859375,0.00177955627441406,0.000852584838867188,0,
00:00:04.84,0.0046234130859375,0.00180244445800781,0.00084686279296875,0,
00:00:04.844,0.00461769104003906,0.00175094604492188,0.000835418701171875,0,
00:00:04.848,0.00463485717773438,0.00179100036621094,0.0008697509765625,0,
00:00:04.852,0.00462913513183594,0.00179672241210938,0.000881195068359375,0,
00:00:04.856,0.00462913513183594,0.00179100036621094,0.000875473022460938,0,
00:00:04.86,0.00464630126953125,0.00177383422851563,0.000852584838867188,0,
00:00:04.864,0.00461769104003906,0.00180244445800781,0.000823974609375,0,
00:00:04.868,0.00460624694824219,0.00179100036621094,0.000829696655273438,0,
00:00:04.872,0.00460052490234375,0.001739501953125,0.00089263916015625,0,
00:00:04.876,0.00460052490234375,0.00175666809082031,0.00089263916015625,0,
00:00:04.88,0.00464057922363281,0.00181388854980469,0.000812530517578125,0,
00:00:04.884,0.00464057922363281,0.00179672241210938,0.000835418701171875,0,
00:00:04.888,0.00460052490234375,0.00173377990722656,0.000909805297851563,0,
00:00:04.892,0.00459480285644531,0.00174522399902344,0.00091552734375,0,
00:00:04.896,0.00462913513183594,0.00181388854980469,0.000881195068359375,0,
00:00:04.9,0.00464630126953125,0.00184822082519531,0.000864028930664063,0,
00:00:04.904,0.00460624694824219,0.00173377990722656,0.000858306884765625,0,
00:00:04.908,0.00460052490234375,0.00171661376953125,0.000875473022460938,0,
00:00:04.912,0.00459480285644531,0.00175666809082031,0.000875473022460938,0,
00:00:04.916,0.00461196899414063,0.00179100036621094,0.000864028930664063,0,
00:00:04.92,0.00461196899414063,0.00179100036621094,0.000875473022460938,0,
00:00:04.924,0.00461769104003906,0.00180244445800781,0.000858306884765625,0,
00:00:04.928,0.00460052490234375,0.00174522399902344,0.000864028930664063,0,
00:00:04.932,0.00459480285644531,0.00173377990722656,0.0008697509765625,0,
00:00:04.936,0.00460052490234375,0.00175666809082031,0.000864028930664063,0,
00:00:04.94,0.00461196899414063,0.00179100036621094,0.00089263916015625,0,
00:00:04.944,0.00459480285644531,0.0017852783203125,0.000886917114257813,0,
00:00:04.948,0.00458908081054688,0.00177955627441406,0.000881195068359375,0,
00:00:04.952,0.00464630126953125,0.00189971923828125,0.00084686279296875,0,
00:00:04.956,0.00466346740722656,0.00189971923828125,0.0007781982421875,0,
00:00:04.96,0.00454330444335938,0.00166511535644531,0.000852584838867188,0,
00:00:04.964,0.00454330444335938,0.00166511535644531,0.0009613037109375,0,
00:00:04.968,0.00457763671875,0.00172233581542969,0.000926971435546875,0,
00:00:04.972,0.00458908081054688,0.00175666809082031,0.0008697509765625,0,
00:00:04.976,0.00458335876464844,0.00177383422851563,0.000875473022460938,0,
00:00:04.98,0.00459480285644531,0.00177955627441406,0.0008697509765625,0,
00:00:04.984,0.00461769104003906,0.00184822082519531,0.000835418701171875,0,
00:00:04.988,0.00459480285644531,0.00179672241210938,0.000829696655273438,0,
00:00:04.992,0.00457191467285156,0.00170516967773438,0.0009613037109375,0,
00:00:04.996,0.00457763671875,0.00174522399902344,0.000909805297851563,0,
00:00:05,0.00458335876464844,0.00175666809082031,0.000875473022460938,0,
00:00:05.004,0.00458908081054688,0.00176239013671875,0.000881195068359375,0,
00:00:05.008,0.00458908081054688,0.00177383422851563,0.0008697509765625,0,
00:00:05.012,0.00458908081054688,0.00179100036621094,0.000852584838867188,0,
00:00:05.016,0.00457191467285156,0.0017852783203125,0.000858306884765625,0,
00:00:05.02,0.00457763671875,0.00175666809082031,0.000852584838867188,0,
00:00:05.024,0.00458908081054688,0.001739501953125,0.000904083251953125,0,
00:00:05.028,0.00457763671875,0.00174522399902344,0.000932693481445313,0,
00:00:05.032,0.00457191467285156,0.00174522399902344,0.00091552734375,0,
00:00:05.036,0.00459480285644531,0.00179100036621094,0.00089263916015625,0,
00:00:05.04,0.00458335876464844,0.00177955627441406,0.000875473022460938,0,
00:00:05.044,0.00459480285644531,0.00179100036621094,0.000875473022460938,0,
00:00:05.048,0.00464057922363281,0.00189971923828125,0.000835418701171875,0,
00:00:05.052,0.00458335876464844,0.00179100036621094,0.000812530517578125,0,
00:00:05.056,0.00451469421386719,0.00165367126464844,0.000944137573242188,0,
00:00:05.06,0.00454902648925781,0.00169944763183594,0.000944137573242188,0,
00:00:05.064,0.00457191467285156,0.00174522399902344,0.000898361206054688,0,
00:00:05.068,0.00457763671875,0.00177955627441406,0.000909805297851563,0,
00:00:05.072,0.00458335876464844,0.00177383422851563,0.000909805297851563,0,
00:00:05.076,0.00457763671875,0.00175666809082031,0.000898361206054688,0,
00:00:05.08,0.00456619262695313,0.00176239013671875,0.00089263916015625,0,
00:00:05.084,0.00457191467285156,0.00176811218261719,0.000858306884765625,0,
00:00:05.088,0.00460624694824219,0.00181388854980469,0.000858306884765625,0,
00:00:05.092,0.0046234130859375,0.00185966491699219,0.000841140747070313,0,
00:00:05.096,0.00459480285644531,0.00181388854980469,0.000886917114257813,0,
00:00:05.1,0.00452041625976563,0.00168800354003906,0.000921249389648438,0,
00:00:05.104,0.00454902648925781,0.00171089172363281,0.00093841552734375,0,
00:00:05.108,0.00457763671875,0.00175094604492188,0.000921249389648438,0,
00:00:05.112,0.00457763671875,0.00177383422851563,0.000909805297851563,0,
00:00:05.116,0.00457191467285156,0.00177383422851563,0.000886917114257813,0,
00:00:05.12,0.00458335876464844,0.00177383422851563,0.000898361206054688,0,
00:00:05.124,0.00457763671875,0.00177955627441406,0.000898361206054688,0,
00:00:05.128,0.00458335876464844,0.00175666809082031,0.00091552734375,0,
00:00:05.132,0.00457763671875,0.00179100036621094,0.000886917114257813,0,
00:00:05.136,0.00458335876464844,0.00180816650390625,0.000852584838867188,0,
00:00:05.14,0.00458335876464844,0.00180816650390625,0.0008697509765625,0,
00:00:05.144,0.00455474853515625,0.00173377990722656,0.00091552734375,0,
00:00:05.148,0.00457763671875,0.00177383422851563,0.000944137573242188,0,
00:00:05.152,0.00459480285644531,0.00181388854980469,0.00089263916015625,0,
00:00:05.156,0.00456619262695313,0.00177383422851563,0.000881195068359375,0,
00:00:05.16,0.00453758239746094,0.00171661376953125,0.000909805297851563,0,
00:00:05.164,0.00454902648925781,0.00175094604492188,0.000932693481445313,0,
00:00:05.168,0.00458335876464844,0.00176811218261719,0.000932693481445313,0,
00:00:05.172,0.00457763671875,0.00177383422851563,0.000921249389648438,0,
00:00:05.176,0.00455474853515625,0.00175666809082031,0.000921249389648438,0,
00:00:05.18,0.00455474853515625,0.001739501953125,0.00091552734375,0,
00:00:05.184,0.00456047058105469,0.00176239013671875,0.00091552734375,0,
00:00:05.188,0.00458335876464844,0.00180816650390625,0.000904083251953125,0,
00:00:05.192,0.00464057922363281,0.00195121765136719,0.0008697509765625,0,
00:00:05.196,0.00460052490234375,0.0018310546875,0.000789642333984375,0,
00:00:05.2,0.00451469421386719,0.00167655944824219,0.00093841552734375,0,
00:00:05.204,0.0045318603515625,0.00167655944824219,0.00100135803222656,0,
00:00:05.208,0.00456047058105469,0.00174522399902344,0.000949859619140625,0,
00:00:05.212,0.00455474853515625,0.00175666809082031,0.000932693481445313,0,
00:00:05.216,0.00456047058105469,0.00176239013671875,0.000926971435546875,0,
00:00:05.22,0.00456047058105469,0.00176811218261719,0.000909805297851563,0,
00:00:05.224,0.00456047058105469,0.00176239013671875,0.000921249389648438,0,
00:00:05.228,0.00455474853515625,0.00175094604492188,0.000926971435546875,0,
00:00:05.232,0.00455474853515625,0.00175094604492188,0.00091552734375,0,
00:00:05.236,0.00456619262695313,0.00177955627441406,0.000886917114257813,0,
00:00:05.24,0.00456619262695313,0.00179100036621094,0.000875473022460938,0,
00:00:05.244,0.00459480285644531,0.00184249877929688,0.00089263916015625,0,
00:00:05.248,0.00461196899414063,0.00188255310058594,0.000841140747070313,0,
00:00:05.252,0.00455474853515625,0.00176239013671875,0.00093841552734375,0,
00:00:05.256,0.00452613830566406,0.00168800354003906,0.000989913940429688,0,
00:00:05.26,0.00454330444335938,0.001739501953125,0.000955581665039063,0,
00:00:05.264,0.00456047058105469,0.00175666809082031,0.000944137573242188,0,
00:00:05.268,0.00456047058105469,0.00177383422851563,0.000944137573242188,0,
00:00:05.272,0.00456619262695313,0.00176811218261719,0.00093841552734375,0,
00:00:05.276,0.00455474853515625,0.00175094604492188,0.000926971435546875,0,
00:00:05.28,0.00456047058105469,0.00179672241210938,0.000921249389648438,0,
00:00:05.284,0.00461196899414063,0.00188255310058594,0.000886917114257813,0,
00:00:05.288,0.00460052490234375,0.00187110900878906,0.000858306884765625,0,
00:00:05.292,0.00449752807617188,0.0016937255859375,0.000967025756835938,0,
00:00:05.296,0.00452041625976563,0.0016937255859375,0.000989913940429688,0,
00:00:05.3,0.00454902648925781,0.001739501953125,0.0009613037109375,0,
00:00:05.304,0.00455474853515625,0.00176811218261719,0.000932693481445313,0,
00:00:05.308,0.00454902648925781,0.00177383422851563,0.000949859619140625,0,
00:00:05.312,0.00454330444335938,0.00177383422851563,0.000944137573242188,0,
00:00:05.316,0.00454330444335938,0.00176239013671875,0.00093841552734375,0,
00:00:05.32,0.00454330444335938,0.00175094604492188,0.000932693481445313,0,
00:00:05.324,0.00453758239746094,0.00177955627441406,0.00093841552734375,0,
00:00:05.328,0.00455474853515625,0.00177955627441406,0.00093841552734375,0,
00:00:05.332,0.00455474853515625,0.00177383422851563,0.00093841552734375,0,
00:00:05.336,0.00454902648925781,0.00177955627441406,0.000921249389648438,0,
00:00:05.34,0.00461196899414063,0.00189399719238281,0.000864028930664063,0,
00:00:05.344,0.00458335876464844,0.0018768310546875,0.000841140747070313,0,
00:00:05.348,0.00451469421386719,0.00172233581542969,0.0009613037109375,0,
00:00:05.352,0.00452041625976563,0.00171661376953125,0.00101280212402344,0,
00:00:05.356,0.00453758239746094,0.00176811218261719,0.000972747802734375,0,
00:00:05.36,0.00454330444335938,0.00177383422851563,0.000955581665039063,0,
00:00:05.364,0.00454330444335938,0.00174522399902344,0.000967025756835938,0,
00:00:05.368,0.00453758239746094,0.00174522399902344,0.000978469848632813,0,
00:00:05.372,0.0045318603515625,0.00175666809082031,0.000955581665039063,0,
00:00:05.376,0.00456047058105469,0.00180244445800781,0.000944137573242188,0,
00:00:05.38,0.00456047058105469,0.00184822082519531,0.000921249389648438,0,
00:00:05.384,0.00452041625976563,0.001739501953125,0.000898361206054688,0,
00:00:05.388,0.0045318603515625,0.00174522399902344,0.00093841552734375,0,
00:00:05.392,0.00452613830566406,0.00175094604492188,0.00100135803222656,0,
00:00:05.396,0.00453758239746094,0.00175666809082031,0.000955581665039063,0,
00:00:05.4,0.00456047058105469,0.00177955627441406,0.000932693481445313,0,
00:00:05.404,0.00453758239746094,0.00179100036621094,0.0009613037109375,0,
00:00:05.408,0.0045318603515625,0.00176811218261719,0.0009613037109375,0,
00:00:05.412,0.00453758239746094,0.00177383422851563,0.0009613037109375,0,
00:00:05.416,0.00453758239746094,0.00176811218261719,0.000955581665039063,0,
00:00:05.42,0.00454330444335938,0.00177955627441406,0.00093841552734375,0,
00:00:05.424,0.00454902648925781,0.00179100036621094,0.000932693481445313,0,
00:00:05.428,0.00455474853515625,0.0017852783203125,0.0009613037109375,0,
00:00:05.432,0.00454330444335938,0.00181961059570313,0.000932693481445313,0,
00:00:05.436,0.00454902648925781,0.00182533264160156,0.000921249389648438,0,
00:00:05.44,0.00452613830566406,0.001739501953125,0.000978469848632813,0,
00:00:05.444,0.00452041625976563,0.00174522399902344,0.00098419189453125,0,
00:00:05.448,0.00452041625976563,0.00175666809082031,0.000978469848632813,0,
00:00:05.452,0.00451469421386719,0.00172805786132813,0.000972747802734375,0,
00:00:05.456,0.00452613830566406,0.00176239013671875,0.0009613037109375,0,
00:00:05.46,0.00452613830566406,0.00179100036621094,0.000949859619140625,0,
00:00:05.464,0.00454330444335938,0.00179100036621094,0.000944137573242188,0,
00:00:05.468,0.00454330444335938,0.0017852783203125,0.000955581665039063,0,
00:00:05.472,0.00453758239746094,0.00177955627441406,0.000955581665039063,0,
00:00:05.476,0.00453758239746094,0.00180244445800781,0.000944137573242188,0,
00:00:05.48,0.00454330444335938,0.00179672241210938,0.000978469848632813,0,
00:00:05.484,0.00453758239746094,0.00177383422851563,0.0009613037109375,0,
00:00:05.488,0.00452041625976563,0.00174522399902344,0.0009613037109375,0,
00:00:05.492,0.00451469421386719,0.00177383422851563,0.000932693481445313,0,
00:00:05.496,0.00451469421386719,0.00177383422851563,0.000967025756835938,0,
00:00:05.5,0.00453758239746094,0.00176239013671875,0.000949859619140625,0,
00:00:05.504,0.00450897216796875,0.00175094604492188,0.000972747802734375,0,
00:00:05.508,0.0045318603515625,0.00176811218261719,0.00098419189453125,0,
00:00:05.512,0.0045318603515625,0.00179100036621094,0.0009613037109375,0,
00:00:05.516,0.00452613830566406,0.00177383422851563,0.0009613037109375,0,
00:00:05.52,0.0045318603515625,0.00176811218261719,0.000978469848632813,0,
00:00:05.524,0.0045318603515625,0.0017852783203125,0.000995635986328125,0,
00:00:05.528,0.0045318603515625,0.00179100036621094,0.000989913940429688,0,
00:00:05.532,0.00450897216796875,0.00176239013671875,0.0009613037109375,0,
00:00:05.536,0.00452041625976563,0.00176239013671875,0.000978469848632813,0,
00:00:05.54,0.00452041625976563,0.00177383422851563,0.000972747802734375,0,
00:00:05.544,0.00453758239746094,0.00180816650390625,0.0009613037109375,0,
00:00:05.548,0.00452613830566406,0.00177955627441406,0.0009613037109375,0,
00:00:05.552,0.00452613830566406,0.0017852783203125,0.000955581665039063,0,
00:00:05.556,0.00450897216796875,0.00175094604492188,0.000989913940429688,0,
00:00:05.56,0.00452613830566406,0.00175666809082031,0.001007080078125,0,
00:00:05.564,0.00452613830566406,0.00179100036621094,0.000978469848632813,0,
00:00:05.568,0.00452041625976563,0.0017852783203125,0.000955581665039063,0,
00:00:05.572,0.00452613830566406,0.00176811218261719,0.000944137573242188,0,
00:00:05.576,0.00452613830566406,0.00176239013671875,0.000989913940429688,0,
00:00:05.58,0.0045318603515625,0.00179672241210938,0.001007080078125,0,
00:00:05.584,0.00454330444335938,0.00181388854980469,0.000978469848632813,0,
00:00:05.588,0.00452041625976563,0.00176811218261719,0.000978469848632813,0,
00:00:05.592,0.00450325012207031,0.001739501953125,0.001007080078125,0,
00:00:05.596,0.00449752807617188,0.00175666809082031,0.000978469848632813,0,
00:00:05.6,0.00452613830566406,0.00177383422851563,0.0009613037109375,0,
00:00:05.604,0.0045318603515625,0.00177955627441406,0.000989913940429688,0,
00:00:05.608,0.0045318603515625,0.00182533264160156,0.000978469848632813,0,
00:00:05.612,0.00454902648925781,0.00184249877929688,0.000955581665039063,0,
00:00:05.616,0.00449752807617188,0.00171089172363281,0.00101280212402344,0,
00:00:05.62,0.00450325012207031,0.001739501953125,0.00102996826171875,0,
00:00:05.624,0.00450897216796875,0.00176239013671875,0.000978469848632813,0,
00:00:05.628,0.00451469421386719,0.00176811218261719,0.000995635986328125,0,
00:00:05.632,0.00452613830566406,0.00177383422851563,0.000995635986328125,0,
00:00:05.636,0.0045318603515625,0.00179100036621094,0.001007080078125,0,
00:00:05.64,0.00452041625976563,0.0017852783203125,0.000995635986328125,0,
00:00:05.644,0.00451469421386719,0.00177955627441406,0.00098419189453125,0,
00:00:05.648,0.00451469421386719,0.00175094604492188,0.00100135803222656,0,
00:00:05.652,0.00451469421386719,0.00177383422851563,0.001007080078125,0,
00:00:05.656,0.00450325012207031,0.00176811218261719,0.000995635986328125,0,
00:00:05.66,0.00450897216796875,0.0017852783203125,0.000989913940429688,0,
00:00:05.664,0.00452041625976563,0.0017852783203125,0.000995635986328125,0,
00:00:05.668,0.00453758239746094,0.00179672241210938,0.000995635986328125,0,
00:00:05.672,0.00453758239746094,0.00181388854980469,0.000944137573242188,0,
00:00:05.676,0.00451469421386719,0.00176811218261719,0.000967025756835938,0,
00:00:05.68,0.00450325012207031,0.001739501953125,0.00100135803222656,0,
00:00:05.684,0.00450897216796875,0.00177955627441406,0.00100135803222656,0,
00:00:05.688,0.00450325012207031,0.00175666809082031,0.00103569030761719,0,
00:00:05.692,0.00449752807617188,0.00176239013671875,0.00103569030761719,0,
00:00:05.696,0.00450325012207031,0.00175666809082031,0.001007080078125,0,
00:00:05.7,0.00454330444335938,0.00179672241210938,0.00100135803222656,0,
00:00:05.704,0.0045318603515625,0.00184822082519531,0.000967025756835938,0,
00:00:05.708,0.00450325012207031,0.00177955627441406,0.000972747802734375,0,
00:00:05.712,0.00449752807617188,0.00176239013671875,0.001007080078125,0,
00:00:05.716,0.00450325012207031,0.00175666809082031,0.00102424621582031,0,
00:00:05.72,0.00450325012207031,0.001739501953125,0.00102996826171875,0,
00:00:05.724,0.00450325012207031,0.00174522399902344,0.00102996826171875,0,
00:00:05.728,0.00450325012207031,0.00176811218261719,0.00101852416992188,0,
00:00:05.732,0.00451469421386719,0.0017852783203125,0.001007080078125,0,
00:00:05.736,0.00452613830566406,0.00181961059570313,0.00100135803222656,0,
00:00:05.74,0.00452613830566406,0.00184822082519531,0.000978469848632813,0,
00:00:05.744,0.00449180603027344,0.00176811218261719,0.00098419189453125,0,
00:00:05.748,0.004486083984375,0.00172233581542969,0.000989913940429688,0,
00:00:05.752,0.00449752807617188,0.001739501953125,0.00102424621582031,0,
00:00:05.756,0.00450325012207031,0.00176811218261719,0.000995635986328125,0,
00:00:05.76,0.00450897216796875,0.0017852783203125,0.00101280212402344,0,
00:00:05.764,0.00449180603027344,0.00176239013671875,0.00101852416992188,0,
00:00:05.768,0.00450897216796875,0.00175094604492188,0.00102996826171875,0,
00:00:05.772,0.00450897216796875,0.00174522399902344,0.00103569030761719,0,
00:00:05.776,0.00450897216796875,0.00177955627441406,0.00101280212402344,0,
00:00:05.78,0.00454330444335938,0.00184249877929688,0.000989913940429688,0,
00:00:05.784,0.0045318603515625,0.0018768310546875,0.000926971435546875,0,
00:00:05.788,0.00449180603027344,0.00174522399902344,0.00101852416992188,0,
00:00:05.792,0.00448036193847656,0.001739501953125,0.0010528564453125,0,
00:00:05.796,0.00449180603027344,0.00174522399902344,0.00106430053710938,0,
00:00:05.8,0.00450325012207031,0.00175666809082031,0.00104713439941406,0,
00:00:05.804,0.00449180603027344,0.00176239013671875,0.00103569030761719,0,
00:00:05.808,0.00449180603027344,0.00176811218261719,0.00101852416992188,0,
00:00:05.812,0.00449752807617188,0.00176811218261719,0.00101280212402344,0,
00:00:05.816,0.00452041625976563,0.00179100036621094,0.000995635986328125,0,
00:00:05.82,0.00455474853515625,0.00189399719238281,0.000949859619140625,0,
00:00:05.824,0.00449752807617188,0.00176811218261719,0.000949859619140625,0,
00:00:05.828,0.004486083984375,0.0016937255859375,0.00109291076660156,0,
00:00:05.832,0.00449752807617188,0.00174522399902344,0.00106430053710938,0,
00:00:05.836,0.00449180603027344,0.00175666809082031,0.00103569030761719,0,
00:00:05.84,0.00450325012207031,0.00176811218261719,0.00104141235351563,0,
00:00:05.844,0.00450897216796875,0.0017852783203125,0.00102424621582031,0,
00:00:05.848,0.00450325012207031,0.0017852783203125,0.00102424621582031,0,
00:00:05.852,0.00450325012207031,0.00177955627441406,0.00101852416992188,0,
00:00:05.856,0.00452041625976563,0.00181388854980469,0.00101852416992188,0,
00:00:05.86,0.0045318603515625,0.00185394287109375,0.000989913940429688,0,
00:00:05.864,0.00450325012207031,0.001739501953125,0.0009613037109375,0,
00:00:05.868,0.004486083984375,0.00172805786132813,0.00103569030761719,0,
00:00:05.872,0.004486083984375,0.00176239013671875,0.00105857849121094,0,
00:00:05.876,0.00449180603027344,0.00177383422851563,0.00104713439941406,0,
00:00:05.88,0.00450325012207031,0.00177383422851563,0.0010528564453125,0,
00:00:05.884,0.00450897216796875,0.00179672241210938,0.0010528564453125,0,
00:00:05.888,0.00452613830566406,0.00183677673339844,0.00103569030761719,0,
00:00:05.892,0.00454902648925781,0.00188827514648438,0.000978469848632813,0,
00:00:05.896,0.00448036193847656,0.00172233581542969,0.000995635986328125,0,
00:00:05.9,0.00448036193847656,0.00169944763183594,0.00107002258300781,0,
00:00:05.904,0.00450897216796875,0.00175094604492188,0.00104713439941406,0,
00:00:05.908,0.00452041625976563,0.00182533264160156,0.00102424621582031,0,
00:00:05.912,0.00451469421386719,0.00179100036621094,0.00103569030761719,0,
00:00:05.916,0.00450897216796875,0.00175666809082031,0.00103569030761719,0,
00:00:05.92,0.00452613830566406,0.00179672241210938,0.00102996826171875,0,
00:00:05.924,0.0045318603515625,0.00184249877929688,0.00098419189453125,0,
00:00:05.928,0.00449752807617188,0.00173377990722656,0.00102424621582031,0,
00:00:05.932,0.00449752807617188,0.00174522399902344,0.00105857849121094,0,
00:00:05.936,0.00452041625976563,0.00181961059570313,0.00104713439941406,0,
00:00:05.94,0.00450325012207031,0.00176811218261719,0.0010528564453125,0,
00:00:05.944,0.004486083984375,0.00176239013671875,0.00102996826171875,0,
00:00:05.948,0.00452041625976563,0.0017852783203125,0.00104141235351563,0,
00:00:05.952,0.00453758239746094,0.00179100036621094,0.00102424621582031,0,
00:00:05.956,0.00449752807617188,0.00175094604492188,0.00101280212402344,0,
00:00:05.96,0.00449180603027344,0.00175094604492188,0.00103569030761719,0,
00:00:05.964,0.00451469421386719,0.0017852783203125,0.00108146667480469,0,
00:00:05.968,0.00452041625976563,0.00180816650390625,0.00104141235351563,0,
00:00:05.972,0.00451469421386719,0.00177383422851563,0.001007080078125,0,
00:00:05.976,0.00451469421386719,0.00176239013671875,0.00101852416992188,0,
00:00:05.98,0.00452041625976563,0.0017852783203125,0.00104141235351563,0,
00:00:05.984,0.0045318603515625,0.00180244445800781,0.00104141235351563,0,
00:00:05.988,0.0045318603515625,0.00179672241210938,0.00101852416992188,0,
00:00:05.992,0.00451469421386719,0.00179100036621094,0.00103569030761719,0,
00:00:05.996,0.00451469421386719,0.00177955627441406,0.00104713439941406,0,
00:00:06,0.00452041625976563,0.00177955627441406,0.00107574462890625,0,
00:00:06.004,0.00452613830566406,0.0017852783203125,0.0010528564453125,0,
00:00:06.008,0.0045318603515625,0.0018310546875,0.00101280212402344,0,
00:00:06.012,0.00452041625976563,0.00179100036621094,0.00102996826171875,0,
00:00:06.016,0.00450325012207031,0.00175666809082031,0.00104713439941406,0,
00:00:06.02,0.00450897216796875,0.00174522399902344,0.00107002258300781,0,
00:00:06.024,0.00452613830566406,0.00176811218261719,0.00105857849121094,0,
00:00:06.028,0.00452613830566406,0.00177955627441406,0.00103569030761719,0,
00:00:06.032,0.00455474853515625,0.00182533264160156,0.00101852416992188,0,
00:00:06.036,0.00457191467285156,0.00186538696289063,0.00100135803222656,0,
00:00:06.04,0.0045318603515625,0.00182533264160156,0.000978469848632813,0,
00:00:06.044,0.00452613830566406,0.00173377990722656,0.00109291076660156,0,
00:00:06.048,0.00452041625976563,0.00176811218261719,0.0010986328125,0,
00:00:06.052,0.00451469421386719,0.00176811218261719,0.00103569030761719,0,
00:00:06.056,0.0045318603515625,0.00176811218261719,0.00105857849121094,0,
00:00:06.06,0.00453758239746094,0.00177383422851563,0.0010528564453125,0,
00:00:06.064,0.00454902648925781,0.00180244445800781,0.0010528564453125,0,
00:00:06.068,0.00456047058105469,0.00184249877929688,0.00102996826171875,0,
00:00:06.072,0.00454902648925781,0.00179672241210938,0.00102424621582031,0,
00:00:06.076,0.00454902648925781,0.0017852783203125,0.00103569030761719,0,
00:00:06.08,0.00455474853515625,0.00177955627441406,0.00104141235351563,0,
00:00:06.084,0.00456047058105469,0.0017852783203125,0.00104141235351563,0,
00:00:06.088,0.00457191467285156,0.00184249877929688,0.00103569030761719,0,
00:00:06.092,0.00457763671875,0.00185966491699219,0.00102996826171875,0,
00:00:06.096,0.00453758239746094,0.00177955627441406,0.001007080078125,0,
00:00:06.1,0.00453758239746094,0.00171661376953125,0.0010986328125,0,
00:00:06.104,0.00456619262695313,0.00177383422851563,0.00110435485839844,0,
00:00:06.108,0.00457763671875,0.00181388854980469,0.00105857849121094,0,
00:00:06.112,0.00457191467285156,0.00176811218261719,0.00104713439941406,0,
00:00:06.116,0.00457191467285156,0.00180244445800781,0.00104141235351563,0,
00:00:06.12,0.00458335876464844,0.00180816650390625,0.00104141235351563,0,
00:00:06.124,0.00461769104003906,0.00184822082519531,0.00103569030761719,0,
00:00:06.128,0.00457191467285156,0.00180244445800781,0.00104713439941406,0,
00:00:06.132,0.00456047058105469,0.0017852783203125,0.00105857849121094,0,
00:00:06.136,0.00458335876464844,0.00181961059570313,0.00103569030761719,0,
00:00:06.14,0.00458908081054688,0.00180244445800781,0.00104141235351563,0,
00:00:06.144,0.00458908081054688,0.00179672241210938,0.00106430053710938,0,
00:00:06.148,0.00460624694824219,0.00180816650390625,0.00108718872070313,0,
00:00:06.152,0.00457763671875,0.00180244445800781,0.00104713439941406,0,
00:00:06.156,0.00456619262695313,0.00177955627441406,0.00104141235351563,0,
00:00:06.16,0.00460624694824219,0.00182533264160156,0.00101280212402344,0,
00:00:06.164,0.00461196899414063,0.00181961059570313,0.00109291076660156,0,
00:00:06.168,0.00461769104003906,0.0018310546875,0.0010528564453125,0,
00:00:06.172,0.00462913513183594,0.00181961059570313,0.00105857849121094,0,
00:00:06.176,0.00461196899414063,0.00182533264160156,0.00106430053710938,0,
00:00:06.18,0.00458335876464844,0.00175094604492188,0.00108718872070313,0,
00:00:06.184,0.00462913513183594,0.0017852783203125,0.00108146667480469,0,
00:00:06.188,0.00462913513183594,0.00180816650390625,0.00105857849121094,0,
00:00:06.192,0.0046234130859375,0.00180816650390625,0.00107574462890625,0,
00:00:06.196,0.0046234130859375,0.00180244445800781,0.0010528564453125,0,
00:00:06.2,0.00463485717773438,0.00179100036621094,0.00107002258300781,0,
00:00:06.204,0.00465774536132813,0.00181961059570313,0.00107574462890625,0,
00:00:06.208,0.00463485717773438,0.00184249877929688,0.00104713439941406,0,
00:00:06.212,0.00464630126953125,0.0017852783203125,0.00104713439941406,0,
00:00:06.216,0.00465202331542969,0.00181388854980469,0.00106430053710938,0,
00:00:06.22,0.00465202331542969,0.00182533264160156,0.00108718872070313,0,
00:00:06.224,0.00467491149902344,0.0018768310546875,0.00108718872070313,0,
00:00:06.228,0.00467491149902344,0.00184249877929688,0.0010528564453125,0,
00:00:06.232,0.00462913513183594,0.00172805786132813,0.00106430053710938,0,
00:00:06.236,0.00464630126953125,0.001739501953125,0.00110435485839844,0,
00:00:06.24,0.00466346740722656,0.0017852783203125,0.00107002258300781,0,
00:00:06.244,0.00467491149902344,0.00181961059570313,0.00107574462890625,0,
00:00:06.248,0.00469207763671875,0.0018310546875,0.00105857849121094,0,
00:00:06.252,0.00469207763671875,0.00181961059570313,0.00106430053710938,0,
00:00:06.256,0.00470352172851563,0.00185966491699219,0.00103569030761719,0,
00:00:06.26,0.0047149658203125,0.00189399719238281,0.00100135803222656,0,
00:00:06.264,0.00469207763671875,0.00180244445800781,0.00107574462890625,0,
00:00:06.268,0.00465202331542969,0.00172233581542969,0.00113296508789063,0,
00:00:06.272,0.00469779968261719,0.00177955627441406,0.00109291076660156,0,
00:00:06.276,0.00472068786621094,0.00179672241210938,0.00108718872070313,0,
00:00:06.28,0.00470924377441406,0.00181961059570313,0.00109291076660156,0,
00:00:06.284,0.00473213195800781,0.00184822082519531,0.00107574462890625,0,
00:00:06.288,0.00475502014160156,0.00189399719238281,0.00104713439941406,0,
00:00:06.292,0.00475502014160156,0.00188255310058594,0.00101852416992188,0,
00:00:06.296,0.00472068786621094,0.00179100036621094,0.00103569030761719,0,
00:00:06.3,0.0047149658203125,0.00175666809082031,0.00113296508789063,0,
00:00:06.304,0.00474929809570313,0.00182533264160156,0.00112152099609375,0,
00:00:06.308,0.00477218627929688,0.00188255310058594,0.00107002258300781,0,
00:00:06.312,0.00477790832519531,0.00189399719238281,0.00101852416992188,0,
00:00:06.316,0.00476646423339844,0.00182533264160156,0.00108718872070313,0,
00:00:06.32,0.00474929809570313,0.00175666809082031,0.00111579895019531,0,
00:00:06.324,0.00479507446289063,0.00183677673339844,0.00108146667480469,0,
00:00:06.328,0.00478935241699219,0.00183677673339844,0.00105857849121094,0,
00:00:06.332,0.00478363037109375,0.00187110900878906,0.00105857849121094,0,
00:00:06.336,0.00482368469238281,0.00189399719238281,0.00105857849121094,0,
00:00:06.34,0.00481224060058594,0.00185966491699219,0.00104141235351563,0,
