Elapsed Time,EMG1,EMG2,EMG3,BioRadio Event,
00:00:00,2.288818359375E-05,-0.000680923461914063,0.00795936584472656,0,
00:00:00.004,1.71661376953125E-05,-0.000715255737304688,0.00795936584472656,0,
00:00:00.008,1.1444091796875E-05,-0.000698089599609375,0.00795936584472656,0,
00:00:00.012,1.1444091796875E-05,-0.00066375732421875,0.00795936584472656,0,
00:00:00.016,1.71661376953125E-05,-0.00066375732421875,0.00795936584472656,0,
00:00:00.02,1.71661376953125E-05,-0.000675201416015625,0.00795936584472656,0,
00:00:00.024,1.1444091796875E-05,-0.00070953369140625,0.00795936584472656,0,
00:00:00.028,1.71661376953125E-05,-0.000692367553710938,0.00795936584472656,0,
00:00:00.032,1.71661376953125E-05,-0.000658035278320313,0.00795936584472656,0,
00:00:00.036,1.71661376953125E-05,-0.000680923461914063,0.00795936584472656,0,
00:00:00.04,2.288818359375E-05,-0.000680923461914063,0.00795364379882813,0,
00:00:00.044,1.1444091796875E-05,-0.0006866455078125,0.00795364379882813,0,
00:00:00.048,1.1444091796875E-05,-0.0006866455078125,0.00795936584472656,0,
00:00:00.052,2.288818359375E-05,-0.000675201416015625,0.00795936584472656,0,
00:00:00.056,2.288818359375E-05,-0.000669479370117188,0.00795936584472656,0,
00:00:00.06,2.288818359375E-05,-0.000675201416015625,0.00795364379882813,0,
00:00:00.064,2.288818359375E-05,-0.000675201416015625,0.00795364379882813,0,
00:00:00.068,1.71661376953125E-05,-0.000675201416015625,0.00795936584472656,0,
00:00:00.072,1.1444091796875E-05,-0.000698089599609375,0.00795936584472656,0,
00:00:00.076,1.1444091796875E-05,-0.000703811645507813,0.00795364379882813,0,
00:00:00.08,1.71661376953125E-05,-0.000692367553710938,0.00795364379882813,0,
00:00:00.084,2.288818359375E-05,-0.000680923461914063,0.00795364379882813,0,
00:00:00.088,1.71661376953125E-05,-0.000675201416015625,0.00795364379882813,0,
00:00:00.092,1.71661376953125E-05,-0.000675201416015625,0.00795364379882813,0,
00:00:00.096,2.288818359375E-05,-0.0006866455078125,0.00795364379882813,0,
00:00:00.1,1.71661376953125E-05,-0.000692367553710938,0.00795364379882813,0,
00:00:00.104,1.71661376953125E-05,-0.000675201416015625,0.00795364379882813,0,
00:00:00.108,1.71661376953125E-05,-0.0006866455078125,0.00795364379882813,0,
00:00:00.112,1.1444091796875E-05,-0.000720977783203125,0.00794792175292969,0,
00:00:00.116,5.7220458984375E-06,-0.000715255737304688,0.00795364379882813,0,
00:00:00.12,1.1444091796875E-05,-0.000652313232421875,0.00795364379882813,0,
00:00:00.124,2.86102294921875E-05,-0.000640869140625,0.00794792175292969,0,
00:00:00.128,2.86102294921875E-05,-0.000669479370117188,0.00794792175292969,0,
00:00:00.132,2.288818359375E-05,-0.000675201416015625,0.00794792175292969,0,
00:00:00.136,1.71661376953125E-05,-0.000692367553710938,0.00794792175292969,0,
00:00:00.14,1.1444091796875E-05,-0.000720977783203125,0.00794792175292969,0,
00:00:00.144,1.1444091796875E-05,-0.000703811645507813,0.00794792175292969,0,
00:00:00.148,2.86102294921875E-05,-0.000675201416015625,0.00794792175292969,0,
00:00:00.152,2.86102294921875E-05,-0.00066375732421875,0.00794792175292969,0,
00:00:00.156,2.288818359375E-05,-0.000675201416015625,0.00794792175292969,0,
00:00:00.16,2.288818359375E-05,-0.000680923461914063,0.00794219970703125,0,
00:00:00.164,2.288818359375E-05,-0.000692367553710938,0.00794792175292969,0,
00:00:00.168,2.288818359375E-05,-0.0006866455078125,0.00794792175292969,0,
00:00:00.172,2.288818359375E-05,-0.000675201416015625,0.00794219970703125,0,
00:00:00.176,1.71661376953125E-05,-0.000669479370117188,0.00794219970703125,0,
00:00:00.18,2.86102294921875E-05,-0.000669479370117188,0.00794219970703125,0,
00:00:00.184,2.86102294921875E-05,-0.000675201416015625,0.00794219970703125,0,
00:00:00.188,1.71661376953125E-05,-0.000698089599609375,0.00794219970703125,0,
00:00:00.192,1.1444091796875E-05,-0.000726699829101563,0.00794219970703125,0,
00:00:00.196,1.1444091796875E-05,-0.000692367553710938,0.00794219970703125,0,
00:00:00.2,1.71661376953125E-05,-0.000658035278320313,0.00794219970703125,0,
00:00:00.204,2.86102294921875E-05,-0.000646591186523438,0.00794219970703125,0,
00:00:00.208,2.288818359375E-05,-0.000658035278320313,0.00794219970703125,0,
00:00:00.212,2.288818359375E-05,-0.000675201416015625,0.00794219970703125,0,
00:00:00.216,1.71661376953125E-05,-0.0006866455078125,0.00794219970703125,0,
00:00:00.22,2.288818359375E-05,-0.000698089599609375,0.00794219970703125,0,
00:00:00.224,2.288818359375E-05,-0.000703811645507813,0.00794219970703125,0,
00:00:00.228,2.86102294921875E-05,-0.000692367553710938,0.00793647766113281,0,
00:00:00.232,2.86102294921875E-05,-0.000680923461914063,0.00793647766113281,0,
00:00:00.236,2.86102294921875E-05,-0.0006866455078125,0.00794219970703125,0,
00:00:00.24,2.86102294921875E-05,-0.000680923461914063,0.00794219970703125,0,
00:00:00.244,3.4332275390625E-05,-0.000675201416015625,0.00793647766113281,0,
00:00:00.248,3.4332275390625E-05,-0.000675201416015625,0.00793647766113281,0,
00:00:00.252,2.86102294921875E-05,-0.000675201416015625,0.00794219970703125,0,
00:00:00.256,2.86102294921875E-05,-0.000675201416015625,0.00794219970703125,0,
00:00:00.26,2.288818359375E-05,-0.000680923461914063,0.00793647766113281,0,
00:00:00.264,2.86102294921875E-05,-0.00066375732421875,0.00793647766113281,0,
00:00:00.268,3.4332275390625E-05,-0.000669479370117188,0.00794219970703125,0,
00:00:00.272,2.288818359375E-05,-0.000680923461914063,0.00794219970703125,0,
00:00:00.276,2.288818359375E-05,-0.000692367553710938,0.00794219970703125,0,
00:00:00.28,2.288818359375E-05,-0.000692367553710938,0.00794219970703125,0,
00:00:00.284,2.288818359375E-05,-0.000675201416015625,0.00794219970703125,0,
00:00:00.288,2.86102294921875E-05,-0.000669479370117188,0.00794219970703125,0,
00:00:00.292,2.86102294921875E-05,-0.000669479370117188,0.00794219970703125,0,
00:00:00.296,2.288818359375E-05,-0.000692367553710938,0.00794219970703125,0,
00:00:00.3,1.71661376953125E-05,-0.0006866455078125,0.00793647766113281,0,
00:00:00.304,2.288818359375E-05,-0.000675201416015625,0.00793647766113281,0,
00:00:00.308,2.86102294921875E-05,-0.00066375732421875,0.00793647766113281,0,
00:00:00.312,2.86102294921875E-05,-0.000675201416015625,0.00793647766113281,0,
00:00:00.316,2.86102294921875E-05,-0.000675201416015625,0.00793075561523438,0,
00:00:00.32,2.86102294921875E-05,-0.00066375732421875,0.00793647766113281,0,
00:00:00.324,2.86102294921875E-05,-0.000675201416015625,0.00793647766113281,0,
00:00:00.328,2.288818359375E-05,-0.000680923461914063,0.00793647766113281,0,
00:00:00.332,1.71661376953125E-05,-0.000703811645507813,0.00793647766113281,0,
00:00:00.336,1.71661376953125E-05,-0.000692367553710938,0.00793647766113281,0,
00:00:00.34,2.288818359375E-05,-0.000669479370117188,0.00793647766113281,0,
00:00:00.344,2.86102294921875E-05,-0.00066375732421875,0.00793647766113281,0,
00:00:00.348,3.4332275390625E-05,-0.000669479370117188,0.00793647766113281,0,
00:00:00.352,2.86102294921875E-05,-0.000669479370117188,0.00793075561523438,0,
00:00:00.356,2.288818359375E-05,-0.000669479370117188,0.00793075561523438,0,
00:00:00.36,2.288818359375E-05,-0.000675201416015625,0.00793075561523438,0,
00:00:00.364,1.71661376953125E-05,-0.000680923461914063,0.00793075561523438,0,
00:00:00.368,2.86102294921875E-05,-0.0006866455078125,0.00793075561523438,0,
00:00:00.372,2.86102294921875E-05,-0.0006866455078125,0.00793075561523438,0,
00:00:00.376,2.86102294921875E-05,-0.000680923461914063,0.00793075561523438,0,
00:00:00.38,2.86102294921875E-05,-0.000669479370117188,0.00793075561523438,0,
00:00:00.384,2.288818359375E-05,-0.000652313232421875,0.00793075561523438,0,
00:00:00.388,2.288818359375E-05,-0.000692367553710938,0.00793075561523438,0,
00:00:00.392,1.71661376953125E-05,-0.000715255737304688,0.00793075561523438,0,
00:00:00.396,1.1444091796875E-05,-0.000675201416015625,0.00793075561523438,0,
00:00:00.4,2.288818359375E-05,-0.000646591186523438,0.00793075561523438,0,
00:00:00.404,2.86102294921875E-05,-0.00066375732421875,0.00792503356933594,0,
00:00:00.408,2.288818359375E-05,-0.000675201416015625,0.00792503356933594,0,
00:00:00.412,1.71661376953125E-05,-0.000675201416015625,0.00793075561523438,0,
00:00:00.416,1.71661376953125E-05,-0.000658035278320313,0.00793075561523438,0,
00:00:00.42,2.288818359375E-05,-0.00066375732421875,0.00792503356933594,0,
00:00:00.424,2.288818359375E-05,-0.00066375732421875,0.00792503356933594,0,
00:00:00.428,2.288818359375E-05,-0.000675201416015625,0.00792503356933594,0,
00:00:00.432,1.71661376953125E-05,-0.000669479370117188,0.00792503356933594,0,
00:00:00.436,1.71661376953125E-05,-0.000658035278320313,0.0079193115234375,0,
00:00:00.44,1.1444091796875E-05,-0.000658035278320313,0.0079193115234375,0,
00:00:00.444,1.1444091796875E-05,-0.000658035278320313,0.0079193115234375,0,
00:00:00.448,1.71661376953125E-05,-0.000675201416015625,0.0079193115234375,0,
00:00:00.452,1.1444091796875E-05,-0.0006866455078125,0.0079193115234375,0,
00:00:00.456,1.1444091796875E-05,-0.000698089599609375,0.0079193115234375,0,
00:00:00.46,5.7220458984375E-06,-0.000698089599609375,0.0079193115234375,0,
00:00:00.464,5.7220458984375E-06,-0.0006866455078125,0.00791358947753906,0,
00:00:00.468,1.1444091796875E-05,-0.00066375732421875,0.00791358947753906,0,
00:00:00.472,1.1444091796875E-05,-0.000669479370117188,0.00791358947753906,0,
00:00:00.476,1.1444091796875E-05,-0.000675201416015625,0.00791358947753906,0,
00:00:00.48,1.1444091796875E-05,-0.000669479370117188,0.00791358947753906,0,
00:00:00.484,5.7220458984375E-06,-0.00066375732421875,0.00791358947753906,0,
00:00:00.488,5.7220458984375E-06,-0.000675201416015625,0.0079193115234375,0,
00:00:00.492,5.7220458984375E-06,-0.000692367553710938,0.0079193115234375,0,
00:00:00.496,5.7220458984375E-06,-0.000698089599609375,0.0079193115234375,0,
00:00:00.5,5.7220458984375E-06,-0.000669479370117188,0.0079193115234375,0,
00:00:00.504,1.71661376953125E-05,-0.00066375732421875,0.0079193115234375,0,
00:00:00.508,1.71661376953125E-05,-0.00066375732421875,0.0079193115234375,0,
00:00:00.512,1.1444091796875E-05,-0.00066375732421875,0.0079193115234375,0,
00:00:00.516,1.71661376953125E-05,-0.00066375732421875,0.0079193115234375,0,
00:00:00.52,1.71661376953125E-05,-0.000658035278320313,0.0079193115234375,0,
00:00:00.524,1.71661376953125E-05,-0.000680923461914063,0.0079193115234375,0,
00:00:00.528,1.71661376953125E-05,-0.000675201416015625,0.0079193115234375,0,
00:00:00.532,1.71661376953125E-05,-0.00066375732421875,0.0079193115234375,0,
00:00:00.536,1.1444091796875E-05,-0.000658035278320313,0.0079193115234375,0,
00:00:00.54,1.71661376953125E-05,-0.00066375732421875,0.0079193115234375,0,
00:00:00.544,1.71661376953125E-05,-0.0006866455078125,0.0079193115234375,0,
00:00:00.548,1.1444091796875E-05,-0.000675201416015625,0.0079193115234375,0,
00:00:00.552,1.1444091796875E-05,-0.000658035278320313,0.0079193115234375,0,
00:00:00.556,1.1444091796875E-05,-0.00066375732421875,0.0079193115234375,0,
00:00:00.56,1.1444091796875E-05,-0.000669479370117188,0.0079193115234375,0,
00:00:00.564,1.71661376953125E-05,-0.00066375732421875,0.0079193115234375,0,
00:00:00.568,1.1444091796875E-05,-0.000680923461914063,0.0079193115234375,0,
00:00:00.572,5.7220458984375E-06,-0.000680923461914063,0.00791358947753906,0,
00:00:00.576,1.1444091796875E-05,-0.000675201416015625,0.0079193115234375,0,
00:00:00.58,1.1444091796875E-05,-0.0006866455078125,0.0079193115234375,0,
00:00:00.584,1.1444091796875E-05,-0.000680923461914063,0.0079193115234375,0,
00:00:00.588,1.71661376953125E-05,-0.00066375732421875,0.0079193115234375,0,
00:00:00.592,1.71661376953125E-05,-0.00066375732421875,0.0079193115234375,0,
00:00:00.596,1.1444091796875E-05,-0.000652313232421875,0.00791358947753906,0,
00:00:00.6,1.1444091796875E-05,-0.000669479370117188,0.0079193115234375,0,
00:00:00.604,1.71661376953125E-05,-0.000703811645507813,0.0079193115234375,0,
00:00:00.608,1.1444091796875E-05,-0.000698089599609375,0.0079193115234375,0,
00:00:00.612,1.1444091796875E-05,-0.000658035278320313,0.0079193115234375,0,
00:00:00.616,1.1444091796875E-05,-0.000646591186523438,0.00791358947753906,0,
00:00:00.62,1.71661376953125E-05,-0.000646591186523438,0.00791358947753906,0,
00:00:00.624,1.1444091796875E-05,-0.00066375732421875,0.00791358947753906,0,
00:00:00.628,5.7220458984375E-06,-0.000692367553710938,0.00791358947753906,0,
00:00:00.632,5.7220458984375E-06,-0.00070953369140625,0.00791358947753906,0,
00:00:00.636,5.7220458984375E-06,-0.0006866455078125,0.00791358947753906,0,
00:00:00.64,1.1444091796875E-05,-0.000652313232421875,0.00791358947753906,0,
00:00:00.644,1.71661376953125E-05,-0.000658035278320313,0.00791358947753906,0,
00:00:00.648,1.1444091796875E-05,-0.00066375732421875,0.00791358947753906,0,
00:00:00.652,5.7220458984375E-06,-0.00066375732421875,0.00791358947753906,0,
00:00:00.656,1.1444091796875E-05,-0.000658035278320313,0.00791358947753906,0,
00:00:00.66,1.71661376953125E-05,-0.000652313232421875,0.00791358947753906,0,
00:00:00.664,1.1444091796875E-05,-0.000669479370117188,0.00791358947753906,0,
00:00:00.668,5.7220458984375E-06,-0.000675201416015625,0.0079193115234375,0,
00:00:00.672,5.7220458984375E-06,-0.000680923461914063,0.00791358947753906,0,
00:00:00.676,5.7220458984375E-06,-0.000669479370117188,0.00791358947753906,0,
00:00:00.68,5.7220458984375E-06,-0.000669479370117188,0.00791358947753906,0,
00:00:00.684,1.1444091796875E-05,-0.000658035278320313,0.00791358947753906,0,
00:00:00.688,5.7220458984375E-06,-0.000640869140625,0.00791358947753906,0,
00:00:00.692,1.71661376953125E-05,-0.000669479370117188,0.00791358947753906,0,
00:00:00.696,1.1444091796875E-05,-0.0006866455078125,0.00791358947753906,0,
00:00:00.7,5.7220458984375E-06,-0.000675201416015625,0.00791358947753906,0,
00:00:00.704,5.7220458984375E-06,-0.000669479370117188,0.00791358947753906,0,
00:00:00.708,0,-0.00066375732421875,0.00790786743164063,0,
00:00:00.712,5.7220458984375E-06,-0.000658035278320313,0.00790786743164063,0,
00:00:00.716,5.7220458984375E-06,-0.000675201416015625,0.00790786743164063,0,
00:00:00.72,0,-0.000680923461914063,0.00790786743164063,0,
00:00:00.724,-5.7220458984375E-06,-0.000675201416015625,0.00790786743164063,0,
00:00:00.728,-5.7220458984375E-06,-0.000675201416015625,0.00790786743164063,0,
00:00:00.732,0,-0.000675201416015625,0.00790786743164063,0,
00:00:00.736,0,-0.000680923461914063,0.00790786743164063,0,
00:00:00.74,5.7220458984375E-06,-0.000669479370117188,0.00790786743164063,0,
00:00:00.744,5.7220458984375E-06,-0.00066375732421875,0.00790214538574219,0,
00:00:00.748,5.7220458984375E-06,-0.00066375732421875,0.00790214538574219,0,
00:00:00.752,0,-0.0006866455078125,0.00790214538574219,0,
00:00:00.756,0,-0.000692367553710938,0.00790214538574219,0,
00:00:00.76,1.1444091796875E-05,-0.00066375732421875,0.00790214538574219,0,
00:00:00.764,5.7220458984375E-06,-0.00066375732421875,0.00790214538574219,0,
00:00:00.768,0,-0.00066375732421875,0.00790214538574219,0,
00:00:00.772,0,-0.0006866455078125,0.00790214538574219,0,
00:00:00.776,0,-0.000698089599609375,0.00790214538574219,0,
00:00:00.78,5.7220458984375E-06,-0.00066375732421875,0.00790786743164063,0,
00:00:00.784,1.1444091796875E-05,-0.000652313232421875,0.00790786743164063,0,
00:00:00.788,1.1444091796875E-05,-0.000669479370117188,0.00790786743164063,0,
00:00:00.792,5.7220458984375E-06,-0.000669479370117188,0.00790786743164063,0,
00:00:00.796,1.1444091796875E-05,-0.000675201416015625,0.00790786743164063,0,
00:00:00.8,5.7220458984375E-06,-0.000692367553710938,0.00790214538574219,0,
00:00:00.804,5.7220458984375E-06,-0.000680923461914063,0.00790786743164063,0,
00:00:00.808,1.71661376953125E-05,-0.000652313232421875,0.00790214538574219,0,
00:00:00.812,1.71661376953125E-05,-0.000658035278320313,0.00790786743164063,0,
00:00:00.816,1.1444091796875E-05,-0.000680923461914063,0.00790214538574219,0,
00:00:00.82,1.1444091796875E-05,-0.000698089599609375,0.00790214538574219,0,
00:00:00.824,5.7220458984375E-06,-0.000715255737304688,0.00790214538574219,0,
00:00:00.828,5.7220458984375E-06,-0.000698089599609375,0.00790214538574219,0,
00:00:00.832,1.1444091796875E-05,-0.00066375732421875,0.00790214538574219,0,
00:00:00.836,1.1444091796875E-05,-0.00066375732421875,0.00790214538574219,0,
00:00:00.84,1.1444091796875E-05,-0.000669479370117188,0.00790214538574219,0,
00:00:00.844,1.1444091796875E-05,-0.000675201416015625,0.00790214538574219,0,
00:00:00.848,1.1444091796875E-05,-0.000703811645507813,0.00790214538574219,0,
00:00:00.852,1.1444091796875E-05,-0.000698089599609375,0.00790214538574219,0,
00:00:00.856,1.1444091796875E-05,-0.000669479370117188,0.00790214538574219,0,
00:00:00.86,1.1444091796875E-05,-0.000652313232421875,0.00790214538574219,0,
00:00:00.864,1.71661376953125E-05,-0.000652313232421875,0.00790214538574219,0,
00:00:00.868,1.71661376953125E-05,-0.00066375732421875,0.00790214538574219,0,
00:00:00.872,1.71661376953125E-05,-0.000669479370117188,0.00790214538574219,0,
00:00:00.876,1.1444091796875E-05,-0.000675201416015625,0.00790214538574219,0,
00:00:00.88,5.7220458984375E-06,-0.000692367553710938,0.00790214538574219,0,
00:00:00.884,5.7220458984375E-06,-0.0006866455078125,0.00790214538574219,0,
00:00:00.888,5.7220458984375E-06,-0.000658035278320313,0.00789642333984375,0,
00:00:00.892,1.1444091796875E-05,-0.00066375732421875,0.00789642333984375,0,
00:00:00.896,5.7220458984375E-06,-0.000675201416015625,0.00789642333984375,0,
00:00:00.9,1.1444091796875E-05,-0.000680923461914063,0.00789642333984375,0,
00:00:00.904,1.1444091796875E-05,-0.000669479370117188,0.00789642333984375,0,
00:00:00.908,1.1444091796875E-05,-0.00066375732421875,0.00789642333984375,0,
00:00:00.912,1.1444091796875E-05,-0.000675201416015625,0.00789642333984375,0,
00:00:00.916,5.7220458984375E-06,-0.0006866455078125,0.00789642333984375,0,
00:00:00.92,0,-0.000703811645507813,0.00789642333984375,0,
00:00:00.924,0,-0.000703811645507813,0.00789642333984375,0,
00:00:00.928,0,-0.00066375732421875,0.00789642333984375,0,
00:00:00.932,1.1444091796875E-05,-0.000646591186523438,0.00789642333984375,0,
00:00:00.936,1.71661376953125E-05,-0.000658035278320313,0.00789642333984375,0,
00:00:00.94,1.71661376953125E-05,-0.00066375732421875,0.00789642333984375,0,
00:00:00.944,1.71661376953125E-05,-0.000652313232421875,0.00789642333984375,0,
00:00:00.948,1.1444091796875E-05,-0.000675201416015625,0.00789642333984375,0,
00:00:00.952,5.7220458984375E-06,-0.000675201416015625,0.00789642333984375,0,
00:00:00.956,1.1444091796875E-05,-0.000658035278320313,0.00789642333984375,0,
00:00:00.96,1.71661376953125E-05,-0.000652313232421875,0.00789070129394531,0,
00:00:00.964,1.71661376953125E-05,-0.000658035278320313,0.00789070129394531,0,
00:00:00.968,1.71661376953125E-05,-0.000669479370117188,0.00789070129394531,0,
00:00:00.972,1.71661376953125E-05,-0.0006866455078125,0.00789070129394531,0,
00:00:00.976,1.71661376953125E-05,-0.000698089599609375,0.00789070129394531,0,
00:00:00.98,1.1444091796875E-05,-0.000675201416015625,0.00789642333984375,0,
00:00:00.984,1.1444091796875E-05,-0.00066375732421875,0.00789642333984375,0,
00:00:00.988,1.1444091796875E-05,-0.000675201416015625,0.00789070129394531,0,
00:00:00.992,1.1444091796875E-05,-0.000658035278320313,0.00789070129394531,0,
00:00:00.996,1.1444091796875E-05,-0.000658035278320313,0.00789070129394531,0,
00:00:01,1.71661376953125E-05,-0.0006866455078125,0.00789070129394531,0,
00:00:01.004,1.71661376953125E-05,-0.000680923461914063,0.00789070129394531,0,
00:00:01.008,1.71661376953125E-05,-0.000680923461914063,0.00789070129394531,0,
00:00:01.012,1.1444091796875E-05,-0.000692367553710938,0.00789070129394531,0,
00:00:01.016,1.71661376953125E-05,-0.000675201416015625,0.00789642333984375,0,
00:00:01.02,2.288818359375E-05,-0.00066375732421875,0.00789642333984375,0,
00:00:01.024,2.288818359375E-05,-0.0006866455078125,0.00789070129394531,0,
00:00:01.028,1.71661376953125E-05,-0.000675201416015625,0.00789070129394531,0,
00:00:01.032,1.1444091796875E-05,-0.000658035278320313,0.00789642333984375,0,
00:00:01.036,2.288818359375E-05,-0.000652313232421875,0.00789642333984375,0,
00:00:01.04,1.71661376953125E-05,-0.000669479370117188,0.00789070129394531,0,
00:00:01.044,1.71661376953125E-05,-0.000692367553710938,0.00789642333984375,0,
00:00:01.048,1.1444091796875E-05,-0.000692367553710938,0.00789642333984375,0,
00:00:01.052,1.71661376953125E-05,-0.000675201416015625,0.00789070129394531,0,
00:00:01.056,2.86102294921875E-05,-0.000646591186523438,0.00789070129394531,0,
00:00:01.06,2.288818359375E-05,-0.000640869140625,0.00789642333984375,0,
00:00:01.064,1.71661376953125E-05,-0.000646591186523438,0.00789642333984375,0,
00:00:01.068,1.71661376953125E-05,-0.00066375732421875,0.00789070129394531,0,
00:00:01.072,1.71661376953125E-05,-0.000669479370117188,0.00789070129394531,0,
00:00:01.076,1.71661376953125E-05,-0.00066375732421875,0.00789070129394531,0,
00:00:01.08,1.71661376953125E-05,-0.000675201416015625,0.00789070129394531,0,
00:00:01.084,1.1444091796875E-05,-0.0006866455078125,0.00789070129394531,0,
00:00:01.088,1.1444091796875E-05,-0.000658035278320313,0.00789642333984375,0,
00:00:01.092,1.71661376953125E-05,-0.00066375732421875,0.00789642333984375,0,
00:00:01.096,2.288818359375E-05,-0.000692367553710938,0.00789070129394531,0,
00:00:01.1,1.71661376953125E-05,-0.000698089599609375,0.00789642333984375,0,
00:00:01.104,1.1444091796875E-05,-0.000680923461914063,0.00789642333984375,0,
00:00:01.108,2.288818359375E-05,-0.00066375732421875,0.00789642333984375,0,
00:00:01.112,2.288818359375E-05,-0.000658035278320313,0.00789070129394531,0,
00:00:01.116,1.71661376953125E-05,-0.000669479370117188,0.00789642333984375,0,
00:00:01.12,1.71661376953125E-05,-0.000680923461914063,0.00789642333984375,0,
00:00:01.124,1.71661376953125E-05,-0.000669479370117188,0.00789642333984375,0,
00:00:01.128,2.288818359375E-05,-0.000658035278320313,0.00789642333984375,0,
00:00:01.132,2.288818359375E-05,-0.000658035278320313,0.00789642333984375,0,
00:00:01.136,2.288818359375E-05,-0.000658035278320313,0.00789642333984375,0,
00:00:01.14,2.288818359375E-05,-0.000669479370117188,0.00789642333984375,0,
00:00:01.144,1.71661376953125E-05,-0.0006866455078125,0.00789642333984375,0,
00:00:01.148,1.71661376953125E-05,-0.000703811645507813,0.00790214538574219,0,
00:00:01.152,1.1444091796875E-05,-0.000703811645507813,0.00790214538574219,0,
00:00:01.156,1.1444091796875E-05,-0.000675201416015625,0.00790214538574219,0,
00:00:01.16,2.288818359375E-05,-0.000652313232421875,0.00790214538574219,0,
00:00:01.164,2.288818359375E-05,-0.000652313232421875,0.00790214538574219,0,
00:00:01.168,2.86102294921875E-05,-0.000652313232421875,0.00790214538574219,0,
00:00:01.172,2.86102294921875E-05,-0.000652313232421875,0.00790214538574219,0,
00:00:01.176,2.288818359375E-05,-0.000675201416015625,0.00790214538574219,0,
00:00:01.18,2.288818359375E-05,-0.000680923461914063,0.00790214538574219,0,
00:00:01.184,2.288818359375E-05,-0.0006866455078125,0.00790214538574219,0,
00:00:01.188,1.71661376953125E-05,-0.000680923461914063,0.00790214538574219,0,
00:00:01.192,2.288818359375E-05,-0.000669479370117188,0.00790786743164063,0,
00:00:01.196,2.288818359375E-05,-0.000669479370117188,0.00790786743164063,0,
00:00:01.2,2.288818359375E-05,-0.000669479370117188,0.00790214538574219,0,
00:00:01.204,2.288818359375E-05,-0.00066375732421875,0.00790786743164063,0,
00:00:01.208,2.86102294921875E-05,-0.00066375732421875,0.00790786743164063,0,
00:00:01.212,2.288818359375E-05,-0.000675201416015625,0.00790786743164063,0,
00:00:01.216,2.288818359375E-05,-0.0006866455078125,0.00790786743164063,0,
00:00:01.22,2.288818359375E-05,-0.0006866455078125,0.00790786743164063,0,
00:00:01.224,1.71661376953125E-05,-0.000675201416015625,0.00790786743164063,0,
00:00:01.228,2.288818359375E-05,-0.0006866455078125,0.00790786743164063,0,
00:00:01.232,2.86102294921875E-05,-0.0006866455078125,0.00791358947753906,0,
00:00:01.236,2.86102294921875E-05,-0.000675201416015625,0.00791358947753906,0,
00:00:01.24,2.86102294921875E-05,-0.000658035278320313,0.00791358947753906,0,
00:00:01.244,2.86102294921875E-05,-0.00066375732421875,0.00791358947753906,0,
00:00:01.248,1.71661376953125E-05,-0.0006866455078125,0.00791358947753906,0,
00:00:01.252,5.7220458984375E-06,-0.000743865966796875,0.00791358947753906,0,
00:00:01.256,5.7220458984375E-06,-0.000726699829101563,0.00791358947753906,0,
00:00:01.26,2.288818359375E-05,-0.000646591186523438,0.00791358947753906,0,
00:00:01.264,2.86102294921875E-05,-0.000646591186523438,0.00791358947753906,0,
00:00:01.268,2.288818359375E-05,-0.000652313232421875,0.00791358947753906,0,
00:00:01.272,2.288818359375E-05,-0.000658035278320313,0.00791358947753906,0,
00:00:01.276,2.288818359375E-05,-0.000675201416015625,0.00791358947753906,0,
00:00:01.28,1.71661376953125E-05,-0.000675201416015625,0.00791358947753906,0,
00:00:01.284,1.1444091796875E-05,-0.000675201416015625,0.0079193115234375,0,
00:00:01.288,2.288818359375E-05,-0.000680923461914063,0.0079193115234375,0,
00:00:01.292,2.86102294921875E-05,-0.000675201416015625,0.0079193115234375,0,
00:00:01.296,2.86102294921875E-05,-0.00066375732421875,0.0079193115234375,0,
00:00:01.3,2.288818359375E-05,-0.000675201416015625,0.0079193115234375,0,
00:00:01.304,1.71661376953125E-05,-0.0006866455078125,0.00792503356933594,0,
00:00:01.308,1.1444091796875E-05,-0.000692367553710938,0.00792503356933594,0,
00:00:01.312,1.1444091796875E-05,-0.000703811645507813,0.00792503356933594,0,
00:00:01.316,1.71661376953125E-05,-0.000703811645507813,0.00792503356933594,0,
00:00:01.32,2.288818359375E-05,-0.000680923461914063,0.00792503356933594,0,
00:00:01.324,2.288818359375E-05,-0.000669479370117188,0.00792503356933594,0,
00:00:01.328,2.288818359375E-05,-0.00066375732421875,0.00793075561523438,0,
00:00:01.332,2.288818359375E-05,-0.000675201416015625,0.00793075561523438,0,
00:00:01.336,2.288818359375E-05,-0.000669479370117188,0.00793075561523438,0,
00:00:01.34,2.86102294921875E-05,-0.000658035278320313,0.00793647766113281,0,
00:00:01.344,3.4332275390625E-05,-0.00066375732421875,0.00793647766113281,0,
00:00:01.348,2.86102294921875E-05,-0.000669479370117188,0.00793647766113281,0,
00:00:01.352,2.288818359375E-05,-0.0006866455078125,0.00793647766113281,0,
00:00:01.356,2.288818359375E-05,-0.0006866455078125,0.00793647766113281,0,
00:00:01.36,2.86102294921875E-05,-0.00066375732421875,0.00793647766113281,0,
00:00:01.364,2.86102294921875E-05,-0.000669479370117188,0.00793647766113281,0,
00:00:01.368,2.288818359375E-05,-0.000680923461914063,0.00794219970703125,0,
00:00:01.372,1.71661376953125E-05,-0.000675201416015625,0.00794219970703125,0,
00:00:01.376,2.288818359375E-05,-0.000669479370117188,0.00794219970703125,0,
00:00:01.38,2.288818359375E-05,-0.000675201416015625,0.00794219970703125,0,
00:00:01.384,1.71661376953125E-05,-0.000669479370117188,0.00794219970703125,0,
00:00:01.388,1.71661376953125E-05,-0.000692367553710938,0.00793647766113281,0,
00:00:01.392,1.71661376953125E-05,-0.000692367553710938,0.00794792175292969,0,
00:00:01.396,2.288818359375E-05,-0.00070953369140625,0.00795364379882813,0,
00:00:01.4,2.288818359375E-05,-0.00070953369140625,0.00794792175292969,0,
00:00:01.404,2.288818359375E-05,-0.000680923461914063,0.00795364379882813,0,
00:00:01.408,2.86102294921875E-05,-0.00066375732421875,0.00795364379882813,0,
00:00:01.412,2.86102294921875E-05,-0.00066375732421875,0.00795364379882813,0,
00:00:01.416,2.86102294921875E-05,-0.00066375732421875,0.00795364379882813,0,
00:00:01.42,1.71661376953125E-05,-0.000675201416015625,0.00795364379882813,0,
00:00:01.424,1.71661376953125E-05,-0.000680923461914063,0.00795364379882813,0,
00:00:01.428,1.71661376953125E-05,-0.00066375732421875,0.00795936584472656,0,
00:00:01.432,2.288818359375E-05,-0.000652313232421875,0.00795936584472656,0,
00:00:01.436,3.4332275390625E-05,-0.000652313232421875,0.00795936584472656,0,
00:00:01.44,2.86102294921875E-05,-0.000675201416015625,0.00795936584472656,0,
00:00:01.444,1.71661376953125E-05,-0.000692367553710938,0.00795936584472656,0,
00:00:01.448,1.71661376953125E-05,-0.000692367553710938,0.007965087890625,0,
00:00:01.452,2.288818359375E-05,-0.000669479370117188,0.007965087890625,0,
00:00:01.456,2.288818359375E-05,-0.00066375732421875,0.007965087890625,0,
00:00:01.46,2.288818359375E-05,-0.000675201416015625,0.007965087890625,0,
00:00:01.464,2.288818359375E-05,-0.000675201416015625,0.007965087890625,0,
00:00:01.468,1.71661376953125E-05,-0.00066375732421875,0.00797080993652344,0,
00:00:01.472,2.288818359375E-05,-0.000680923461914063,0.00797080993652344,0,
00:00:01.476,2.86102294921875E-05,-0.000692367553710938,0.00797080993652344,0,
00:00:01.48,2.288818359375E-05,-0.000698089599609375,0.00797080993652344,0,
00:00:01.484,2.288818359375E-05,-0.000692367553710938,0.00797653198242188,0,
00:00:01.488,1.71661376953125E-05,-0.000675201416015625,0.00797653198242188,0,
00:00:01.492,2.86102294921875E-05,-0.000658035278320313,0.00797653198242188,0,
00:00:01.496,3.4332275390625E-05,-0.000669479370117188,0.00797653198242188,0,
00:00:01.5,2.86102294921875E-05,-0.0006866455078125,0.00798225402832031,0,
00:00:01.504,2.288818359375E-05,-0.000675201416015625,0.00798225402832031,0,
00:00:01.508,3.4332275390625E-05,-0.000669479370117188,0.00798225402832031,0,
00:00:01.512,2.86102294921875E-05,-0.000692367553710938,0.00798225402832031,0,
00:00:01.516,2.288818359375E-05,-0.000698089599609375,0.00798797607421875,0,
00:00:01.52,1.71661376953125E-05,-0.0006866455078125,0.00798797607421875,0,
00:00:01.524,2.288818359375E-05,-0.000692367553710938,0.00798797607421875,0,
00:00:01.528,2.288818359375E-05,-0.000703811645507813,0.00798797607421875,0,
00:00:01.532,2.288818359375E-05,-0.000698089599609375,0.00799369812011719,0,
00:00:01.536,2.86102294921875E-05,-0.000658035278320313,0.00799369812011719,0,
00:00:01.54,3.4332275390625E-05,-0.000629425048828125,0.00799942016601563,0,
00:00:01.544,2.86102294921875E-05,-0.000652313232421875,0.00799942016601563,0,
00:00:01.548,2.86102294921875E-05,-0.000652313232421875,0.00799942016601563,0,
00:00:01.552,2.86102294921875E-05,-0.000669479370117188,0.00799942016601563,0,
00:00:01.556,2.86102294921875E-05,-0.000675201416015625,0.00800514221191406,0,
00:00:01.56,2.86102294921875E-05,-0.000680923461914063,0.00800514221191406,0,
00:00:01.564,2.86102294921875E-05,-0.000692367553710938,0.00800514221191406,0,
00:00:01.568,2.86102294921875E-05,-0.000692367553710938,0.0080108642578125,0,
00:00:01.572,2.86102294921875E-05,-0.000675201416015625,0.0080108642578125,0,
00:00:01.576,2.86102294921875E-05,-0.000658035278320313,0.00800514221191406,0,
00:00:01.58,2.86102294921875E-05,-0.000658035278320313,0.0080108642578125,0,
00:00:01.584,2.86102294921875E-05,-0.00066375732421875,0.0080108642578125,0,
00:00:01.588,2.288818359375E-05,-0.00066375732421875,0.0080108642578125,0,
00:00:01.592,2.288818359375E-05,-0.000675201416015625,0.0080108642578125,0,
00:00:01.596,2.86102294921875E-05,-0.000680923461914063,0.00801658630371094,0,
00:00:01.6,2.288818359375E-05,-0.000675201416015625,0.00801658630371094,0,
00:00:01.604,2.86102294921875E-05,-0.000680923461914063,0.00801658630371094,0,
00:00:01.608,2.288818359375E-05,-0.000675201416015625,0.00801658630371094,0,
00:00:01.612,2.86102294921875E-05,-0.000658035278320313,0.00802230834960938,0,
00:00:01.616,2.86102294921875E-05,-0.00066375732421875,0.00802230834960938,0,
00:00:01.62,2.288818359375E-05,-0.000692367553710938,0.00802803039550781,0,
00:00:01.624,1.71661376953125E-05,-0.000703811645507813,0.00802803039550781,0,
00:00:01.628,1.71661376953125E-05,-0.0006866455078125,0.00803375244140625,0,
00:00:01.632,2.288818359375E-05,-0.00066375732421875,0.00803375244140625,0,
00:00:01.636,2.86102294921875E-05,-0.000652313232421875,0.00803375244140625,0,
00:00:01.64,2.86102294921875E-05,-0.000646591186523438,0.00803375244140625,0,
00:00:01.644,2.86102294921875E-05,-0.000652313232421875,0.00803947448730469,0,
00:00:01.648,2.288818359375E-05,-0.000658035278320313,0.00803947448730469,0,
00:00:01.652,2.288818359375E-05,-0.0006866455078125,0.00803947448730469,0,
00:00:01.656,2.288818359375E-05,-0.000703811645507813,0.00803947448730469,0,
00:00:01.66,2.288818359375E-05,-0.000669479370117188,0.00804519653320313,0,
00:00:01.664,2.288818359375E-05,-0.000646591186523438,0.00804519653320313,0,
00:00:01.668,2.86102294921875E-05,-0.000658035278320313,0.00804519653320313,0,
00:00:01.672,2.86102294921875E-05,-0.00066375732421875,0.00805091857910156,0,
00:00:01.676,2.288818359375E-05,-0.00066375732421875,0.00805091857910156,0,
00:00:01.68,2.288818359375E-05,-0.000675201416015625,0.00805091857910156,0,
00:00:01.684,1.1444091796875E-05,-0.000680923461914063,0.008056640625,0,
00:00:01.688,5.7220458984375E-06,-0.000692367553710938,0.008056640625,0,
00:00:01.692,1.1444091796875E-05,-0.000692367553710938,0.00806236267089844,0,
00:00:01.696,1.1444091796875E-05,-0.0006866455078125,0.00806808471679688,0,
00:00:01.7,1.1444091796875E-05,-0.000669479370117188,0.00806808471679688,0,
00:00:01.704,1.71661376953125E-05,-0.000658035278320313,0.00806808471679688,0,
00:00:01.708,2.288818359375E-05,-0.00066375732421875,0.00806808471679688,0,
00:00:01.712,1.71661376953125E-05,-0.000658035278320313,0.00807380676269531,0,
00:00:01.716,2.288818359375E-05,-0.000652313232421875,0.00807380676269531,0,
00:00:01.72,2.288818359375E-05,-0.000646591186523438,0.00807380676269531,0,
00:00:01.724,2.288818359375E-05,-0.000652313232421875,0.00807380676269531,0,
00:00:01.728,2.288818359375E-05,-0.00066375732421875,0.00807952880859375,0,
00:00:01.732,2.288818359375E-05,-0.000680923461914063,0.00807952880859375,0,
00:00:01.736,1.1444091796875E-05,-0.000703811645507813,0.00808525085449219,0,
00:00:01.74,1.1444091796875E-05,-0.000692367553710938,0.00808525085449219,0,
00:00:01.744,2.288818359375E-05,-0.000669479370117188,0.00809097290039063,0,
00:00:01.748,2.86102294921875E-05,-0.00066375732421875,0.00809097290039063,0,
00:00:01.752,2.86102294921875E-05,-0.000652313232421875,0.00809097290039063,0,
00:00:01.756,2.288818359375E-05,-0.000646591186523438,0.00809097290039063,0,
00:00:01.76,2.86102294921875E-05,-0.000652313232421875,0.00809669494628906,0,
00:00:01.764,3.4332275390625E-05,-0.000658035278320313,0.00809669494628906,0,
00:00:01.768,2.86102294921875E-05,-0.000669479370117188,0.0081024169921875,0,
00:00:01.772,2.288818359375E-05,-0.000698089599609375,0.0081024169921875,0,
00:00:01.776,1.71661376953125E-05,-0.000698089599609375,0.0081024169921875,0,
00:00:01.78,2.288818359375E-05,-0.000669479370117188,0.00810813903808594,0,
00:00:01.784,2.86102294921875E-05,-0.000652313232421875,0.00810813903808594,0,
00:00:01.788,2.86102294921875E-05,-0.000658035278320313,0.00810813903808594,0,
00:00:01.792,3.4332275390625E-05,-0.000680923461914063,0.00810813903808594,0,
00:00:01.796,2.288818359375E-05,-0.0006866455078125,0.00811386108398438,0,
00:00:01.8,2.86102294921875E-05,-0.00066375732421875,0.00811386108398438,0,
00:00:01.804,3.4332275390625E-05,-0.000646591186523438,0.00811386108398438,0,
00:00:01.808,3.4332275390625E-05,-0.000658035278320313,0.00811958312988281,0,
00:00:01.812,2.86102294921875E-05,-0.000669479370117188,0.00811958312988281,0,
00:00:01.816,2.86102294921875E-05,-0.000675201416015625,0.00812530517578125,0,
00:00:01.82,2.288818359375E-05,-0.0006866455078125,0.00812530517578125,0,
00:00:01.824,2.86102294921875E-05,-0.000669479370117188,0.00813102722167969,0,
00:00:01.828,3.4332275390625E-05,-0.000669479370117188,0.00813102722167969,0,
00:00:01.832,3.4332275390625E-05,-0.000675201416015625,0.00813674926757813,0,
00:00:01.836,3.4332275390625E-05,-0.000658035278320313,0.00813674926757813,0,
00:00:01.84,4.00543212890625E-05,-0.000669479370117188,0.00813674926757813,0,
00:00:01.844,4.00543212890625E-05,-0.00066375732421875,0.00813674926757813,0,
00:00:01.848,3.4332275390625E-05,-0.000669479370117188,0.00813674926757813,0,
00:00:01.852,3.4332275390625E-05,-0.000692367553710938,0.00814247131347656,0,
00:00:01.856,3.4332275390625E-05,-0.000698089599609375,0.00814247131347656,0,
00:00:01.86,3.4332275390625E-05,-0.000680923461914063,0.00814247131347656,0,
00:00:01.864,2.86102294921875E-05,-0.00066375732421875,0.008148193359375,0,
00:00:01.868,3.4332275390625E-05,-0.00066375732421875,0.008148193359375,0,
00:00:01.872,4.00543212890625E-05,-0.000669479370117188,0.00815391540527344,0,
00:00:01.876,4.00543212890625E-05,-0.000658035278320313,0.00815391540527344,0,
00:00:01.88,4.00543212890625E-05,-0.000669479370117188,0.00815391540527344,0,
00:00:01.884,3.4332275390625E-05,-0.000675201416015625,0.00815963745117188,0,
00:00:01.888,3.4332275390625E-05,-0.00066375732421875,0.00815963745117188,0,
00:00:01.892,4.00543212890625E-05,-0.000652313232421875,0.00815963745117188,0,
00:00:01.896,4.00543212890625E-05,-0.00066375732421875,0.00815963745117188,0,
00:00:01.9,4.00543212890625E-05,-0.000680923461914063,0.00816535949707031,0,
00:00:01.904,3.4332275390625E-05,-0.0006866455078125,0.00816535949707031,0,
00:00:01.908,3.4332275390625E-05,-0.000680923461914063,0.00816535949707031,0,
00:00:01.912,4.00543212890625E-05,-0.000680923461914063,0.00817108154296875,0,
00:00:01.916,4.00543212890625E-05,-0.000669479370117188,0.00817108154296875,0,
00:00:01.92,3.4332275390625E-05,-0.0006866455078125,0.00817108154296875,0,
00:00:01.924,3.4332275390625E-05,-0.000680923461914063,0.00817680358886719,0,
00:00:01.928,3.4332275390625E-05,-0.000669479370117188,0.00817680358886719,0,
00:00:01.932,3.4332275390625E-05,-0.000669479370117188,0.00818252563476563,0,
00:00:01.936,3.4332275390625E-05,-0.000680923461914063,0.00818252563476563,0,
00:00:01.94,3.4332275390625E-05,-0.0006866455078125,0.00818252563476563,0,
00:00:01.944,4.00543212890625E-05,-0.000675201416015625,0.00818252563476563,0,
00:00:01.948,4.00543212890625E-05,-0.000669479370117188,0.00818824768066406,0,
00:00:01.952,4.00543212890625E-05,-0.000652313232421875,0.00818824768066406,0,
00:00:01.956,3.4332275390625E-05,-0.00066375732421875,0.0081939697265625,0,
00:00:01.96,2.86102294921875E-05,-0.000680923461914063,0.0081939697265625,0,
00:00:01.964,2.288818359375E-05,-0.000692367553710938,0.0081939697265625,0,
00:00:01.968,2.288818359375E-05,-0.0006866455078125,0.0081939697265625,0,
00:00:01.972,3.4332275390625E-05,-0.000675201416015625,0.0081939697265625,0,
00:00:01.976,4.00543212890625E-05,-0.000669479370117188,0.0081939697265625,0,
00:00:01.98,4.00543212890625E-05,-0.000658035278320313,0.00819969177246094,0,
00:00:01.984,4.00543212890625E-05,-0.000652313232421875,0.00819969177246094,0,
00:00:01.988,4.00543212890625E-05,-0.000646591186523438,0.00819969177246094,0,
00:00:01.992,4.00543212890625E-05,-0.000652313232421875,0.00820541381835938,0,
00:00:01.996,4.00543212890625E-05,-0.000675201416015625,0.00820541381835938,0,
00:00:02,2.86102294921875E-05,-0.000680923461914063,0.00820541381835938,0,
00:00:02.004,2.86102294921875E-05,-0.00066375732421875,0.00821113586425781,0,
00:00:02.008,2.86102294921875E-05,-0.000652313232421875,0.00821685791015625,0,
00:00:02.012,3.4332275390625E-05,-0.000652313232421875,0.00821685791015625,0,
00:00:02.016,3.4332275390625E-05,-0.00066375732421875,0.00821685791015625,0,
00:00:02.02,2.86102294921875E-05,-0.000675201416015625,0.00822257995605469,0,
00:00:02.024,2.288818359375E-05,-0.000703811645507813,0.00822257995605469,0,
00:00:02.028,1.71661376953125E-05,-0.000692367553710938,0.00822257995605469,0,
00:00:02.032,2.288818359375E-05,-0.00066375732421875,0.00822830200195313,0,
00:00:02.036,3.4332275390625E-05,-0.000658035278320313,0.00822830200195313,0,
00:00:02.04,2.86102294921875E-05,-0.000652313232421875,0.00822830200195313,0,
00:00:02.044,3.4332275390625E-05,-0.000652313232421875,0.00823402404785156,0,
00:00:02.048,3.4332275390625E-05,-0.000669479370117188,0.00823402404785156,0,
00:00:02.052,2.86102294921875E-05,-0.000680923461914063,0.00823402404785156,0,
00:00:02.056,1.71661376953125E-05,-0.0006866455078125,0.00823974609375,0,
00:00:02.06,2.288818359375E-05,-0.0006866455078125,0.00823974609375,0,
00:00:02.064,2.288818359375E-05,-0.000680923461914063,0.00824546813964844,0,
00:00:02.068,2.86102294921875E-05,-0.000675201416015625,0.00824546813964844,0,
00:00:02.072,2.86102294921875E-05,-0.000669479370117188,0.00824546813964844,0,
00:00:02.076,2.86102294921875E-05,-0.000652313232421875,0.00824546813964844,0,
00:00:02.08,2.288818359375E-05,-0.000658035278320313,0.00824546813964844,0,
00:00:02.084,2.288818359375E-05,-0.000669479370117188,0.00824546813964844,0,
00:00:02.088,2.86102294921875E-05,-0.00066375732421875,0.00825119018554688,0,
00:00:02.092,2.86102294921875E-05,-0.000652313232421875,0.00825119018554688,0,
00:00:02.096,2.288818359375E-05,-0.000646591186523438,0.00825119018554688,0,
00:00:02.1,2.288818359375E-05,-0.000652313232421875,0.00825691223144531,0,
00:00:02.104,2.288818359375E-05,-0.000652313232421875,0.00825691223144531,0,
00:00:02.108,2.86102294921875E-05,-0.000658035278320313,0.00826263427734375,0,
00:00:02.112,2.288818359375E-05,-0.000675201416015625,0.00826263427734375,0,
00:00:02.116,2.288818359375E-05,-0.0006866455078125,0.00826263427734375,0,
00:00:02.12,1.71661376953125E-05,-0.000680923461914063,0.00826263427734375,0,
00:00:02.124,1.71661376953125E-05,-0.00066375732421875,0.00826263427734375,0,
00:00:02.128,2.288818359375E-05,-0.000652313232421875,0.00826835632324219,0,
00:00:02.132,2.86102294921875E-05,-0.000658035278320313,0.00826835632324219,0,
00:00:02.136,2.288818359375E-05,-0.000669479370117188,0.00826835632324219,0,
00:00:02.14,1.71661376953125E-05,-0.000658035278320313,0.00826835632324219,0,
00:00:02.144,2.288818359375E-05,-0.00066375732421875,0.00826835632324219,0,
00:00:02.148,2.288818359375E-05,-0.000680923461914063,0.00827407836914063,0,
00:00:02.152,2.288818359375E-05,-0.0006866455078125,0.00827407836914063,0,
00:00:02.156,1.71661376953125E-05,-0.000692367553710938,0.00827407836914063,0,
00:00:02.16,1.71661376953125E-05,-0.000675201416015625,0.00827980041503906,0,
00:00:02.164,2.288818359375E-05,-0.000675201416015625,0.00827980041503906,0,
00:00:02.168,2.86102294921875E-05,-0.000669479370117188,0.00827980041503906,0,
00:00:02.172,2.86102294921875E-05,-0.000675201416015625,0.00827980041503906,0,
00:00:02.176,2.86102294921875E-05,-0.000698089599609375,0.0082855224609375,0,
00:00:02.18,2.288818359375E-05,-0.000720977783203125,0.0082855224609375,0,
00:00:02.184,1.1444091796875E-05,-0.000692367553710938,0.0082855224609375,0,
00:00:02.188,2.288818359375E-05,-0.000658035278320313,0.0082855224609375,0,
00:00:02.192,3.4332275390625E-05,-0.000646591186523438,0.0082855224609375,0,
00:00:02.196,2.86102294921875E-05,-0.000652313232421875,0.0082855224609375,0,
00:00:02.2,2.86102294921875E-05,-0.000658035278320313,0.00829124450683594,0,
00:00:02.204,2.288818359375E-05,-0.000652313232421875,0.00829124450683594,0,
00:00:02.208,2.288818359375E-05,-0.000652313232421875,0.00829124450683594,0,
00:00:02.212,2.86102294921875E-05,-0.000652313232421875,0.00829696655273438,0,
00:00:02.216,3.4332275390625E-05,-0.000658035278320313,0.00830268859863281,0,
00:00:02.22,2.86102294921875E-05,-0.00066375732421875,0.00830268859863281,0,
00:00:02.224,2.288818359375E-05,-0.00066375732421875,0.00830268859863281,0,
00:00:02.228,1.71661376953125E-05,-0.000669479370117188,0.00830268859863281,0,
00:00:02.232,2.288818359375E-05,-0.000669479370117188,0.00830268859863281,0,
00:00:02.236,2.86102294921875E-05,-0.000669479370117188,0.00830841064453125,0,
00:00:02.24,2.288818359375E-05,-0.00066375732421875,0.00830841064453125,0,
00:00:02.244,1.71661376953125E-05,-0.000669479370117188,0.00830841064453125,0,
00:00:02.248,1.71661376953125E-05,-0.00070953369140625,0.00831413269042969,0,
00:00:02.252,1.71661376953125E-05,-0.000715255737304688,0.00831413269042969,0,
00:00:02.256,1.71661376953125E-05,-0.000680923461914063,0.00831413269042969,0,
00:00:02.26,2.288818359375E-05,-0.000675201416015625,0.00831413269042969,0,
00:00:02.264,2.288818359375E-05,-0.000669479370117188,0.00831413269042969,0,
00:00:02.268,2.86102294921875E-05,-0.000658035278320313,0.00831413269042969,0,
00:00:02.272,2.288818359375E-05,-0.000669479370117188,0.00831413269042969,0,
00:00:02.276,2.288818359375E-05,-0.000658035278320313,0.00831413269042969,0,
00:00:02.28,2.288818359375E-05,-0.000652313232421875,0.00831985473632813,0,
00:00:02.284,2.288818359375E-05,-0.000652313232421875,0.00831985473632813,0,
00:00:02.288,1.71661376953125E-05,-0.000675201416015625,0.00831985473632813,0,
00:00:02.292,1.71661376953125E-05,-0.000680923461914063,0.00831985473632813,0,
00:00:02.296,2.288818359375E-05,-0.000669479370117188,0.00832557678222656,0,
00:00:02.3,2.288818359375E-05,-0.000658035278320313,0.00832557678222656,0,
00:00:02.304,2.86102294921875E-05,-0.000646591186523438,0.00832557678222656,0,
00:00:02.308,2.86102294921875E-05,-0.000669479370117188,0.00832557678222656,0,
00:00:02.312,2.288818359375E-05,-0.000675201416015625,0.008331298828125,0,
00:00:02.316,2.288818359375E-05,-0.000675201416015625,0.008331298828125,0,
00:00:02.32,1.71661376953125E-05,-0.000669479370117188,0.008331298828125,0,
00:00:02.324,1.71661376953125E-05,-0.000675201416015625,0.008331298828125,0,
00:00:02.328,2.288818359375E-05,-0.000675201416015625,0.008331298828125,0,
00:00:02.332,2.288818359375E-05,-0.00066375732421875,0.00833702087402344,0,
00:00:02.336,2.288818359375E-05,-0.000675201416015625,0.00833702087402344,0,
00:00:02.34,2.288818359375E-05,-0.000692367553710938,0.00833702087402344,0,
00:00:02.344,1.71661376953125E-05,-0.00070953369140625,0.00833702087402344,0,
00:00:02.348,2.288818359375E-05,-0.000715255737304688,0.00833702087402344,0,
00:00:02.352,1.71661376953125E-05,-0.000698089599609375,0.00834274291992188,0,
00:00:02.356,1.1444091796875E-05,-0.000675201416015625,0.00834274291992188,0,
00:00:02.36,2.288818359375E-05,-0.000658035278320313,0.00834274291992188,0,
00:00:02.364,2.86102294921875E-05,-0.000640869140625,0.00834274291992188,0,
00:00:02.368,2.86102294921875E-05,-0.000652313232421875,0.00834274291992188,0,
00:00:02.372,2.288818359375E-05,-0.00066375732421875,0.00834846496582031,0,
00:00:02.376,2.288818359375E-05,-0.00066375732421875,0.00834846496582031,0,
00:00:02.38,2.288818359375E-05,-0.000669479370117188,0.00834846496582031,0,
00:00:02.384,1.71661376953125E-05,-0.000675201416015625,0.00834846496582031,0,
00:00:02.388,1.1444091796875E-05,-0.0006866455078125,0.00835418701171875,0,
00:00:02.392,1.1444091796875E-05,-0.000692367553710938,0.00835418701171875,0,
00:00:02.396,1.71661376953125E-05,-0.000680923461914063,0.00835418701171875,0,
00:00:02.4,1.71661376953125E-05,-0.000675201416015625,0.00835418701171875,0,
00:00:02.404,2.288818359375E-05,-0.0006866455078125,0.00835418701171875,0,
00:00:02.408,2.86102294921875E-05,-0.000669479370117188,0.00835418701171875,0,
00:00:02.412,2.86102294921875E-05,-0.00066375732421875,0.00835418701171875,0,
00:00:02.416,2.288818359375E-05,-0.000703811645507813,0.00835418701171875,0,
00:00:02.42,1.1444091796875E-05,-0.00070953369140625,0.00835990905761719,0,
00:00:02.424,1.1444091796875E-05,-0.00070953369140625,0.00835990905761719,0,
00:00:02.428,1.71661376953125E-05,-0.000692367553710938,0.00836563110351563,0,
00:00:02.432,2.288818359375E-05,-0.000646591186523438,0.00836563110351563,0,
00:00:02.436,2.288818359375E-05,-0.000652313232421875,0.00835990905761719,0,
00:00:02.44,2.288818359375E-05,-0.000669479370117188,0.00836563110351563,0,
00:00:02.444,1.71661376953125E-05,-0.000675201416015625,0.00836563110351563,0,
00:00:02.448,1.71661376953125E-05,-0.000658035278320313,0.00836563110351563,0,
00:00:02.452,2.288818359375E-05,-0.00066375732421875,0.00836563110351563,0,
00:00:02.456,2.288818359375E-05,-0.000669479370117188,0.00836563110351563,0,
00:00:02.46,1.71661376953125E-05,-0.000680923461914063,0.00837135314941406,0,
00:00:02.464,1.1444091796875E-05,-0.000680923461914063,0.00837135314941406,0,
00:00:02.468,1.71661376953125E-05,-0.000675201416015625,0.00837135314941406,0,
00:00:02.472,2.288818359375E-05,-0.00066375732421875,0.00836563110351563,0,
00:00:02.476,2.288818359375E-05,-0.00066375732421875,0.00837135314941406,0,
00:00:02.48,2.288818359375E-05,-0.000669479370117188,0.00836563110351563,0,
00:00:02.484,2.288818359375E-05,-0.000675201416015625,0.00837135314941406,0,
00:00:02.488,2.288818359375E-05,-0.000675201416015625,0.00837135314941406,0,
00:00:02.492,2.288818359375E-05,-0.0006866455078125,0.00837135314941406,0,
00:00:02.496,2.288818359375E-05,-0.000703811645507813,0.00837135314941406,0,
00:00:02.5,2.288818359375E-05,-0.000692367553710938,0.00837135314941406,0,
00:00:02.504,1.71661376953125E-05,-0.000680923461914063,0.00837135314941406,0,
00:00:02.508,2.288818359375E-05,-0.000675201416015625,0.00837135314941406,0,
00:00:02.512,2.86102294921875E-05,-0.000680923461914063,0.0083770751953125,0,
00:00:02.516,2.288818359375E-05,-0.000675201416015625,0.0083770751953125,0,
00:00:02.52,1.71661376953125E-05,-0.000669479370117188,0.0083770751953125,0,
00:00:02.524,1.1444091796875E-05,-0.000692367553710938,0.0083770751953125,0,
00:00:02.528,1.1444091796875E-05,-0.000703811645507813,0.00838279724121094,0,
00:00:02.532,1.71661376953125E-05,-0.000692367553710938,0.0083770751953125,0,
00:00:02.536,2.288818359375E-05,-0.0006866455078125,0.0083770751953125,0,
00:00:02.54,2.288818359375E-05,-0.0006866455078125,0.00838279724121094,0,
00:00:02.544,1.71661376953125E-05,-0.000680923461914063,0.00838279724121094,0,
00:00:02.548,1.71661376953125E-05,-0.00066375732421875,0.00838279724121094,0,
00:00:02.552,2.288818359375E-05,-0.000680923461914063,0.00838279724121094,0,
00:00:02.556,2.288818359375E-05,-0.000680923461914063,0.00838279724121094,0,
00:00:02.56,2.288818359375E-05,-0.000669479370117188,0.00838279724121094,0,
00:00:02.564,2.288818359375E-05,-0.000669479370117188,0.00838279724121094,0,
00:00:02.568,2.288818359375E-05,-0.000675201416015625,0.00838279724121094,0,
00:00:02.572,2.288818359375E-05,-0.000680923461914063,0.00838279724121094,0,
00:00:02.576,2.288818359375E-05,-0.000675201416015625,0.00838279724121094,0,
00:00:02.58,2.288818359375E-05,-0.000675201416015625,0.00838279724121094,0,
00:00:02.584,1.71661376953125E-05,-0.0006866455078125,0.00838279724121094,0,
00:00:02.588,2.288818359375E-05,-0.000698089599609375,0.00838851928710938,0,
00:00:02.592,2.288818359375E-05,-0.000692367553710938,0.00838851928710938,0,
00:00:02.596,1.71661376953125E-05,-0.0006866455078125,0.00838851928710938,0,
00:00:02.6,1.1444091796875E-05,-0.000703811645507813,0.00838851928710938,0,
00:00:02.604,1.1444091796875E-05,-0.000703811645507813,0.00838851928710938,0,
00:00:02.608,1.71661376953125E-05,-0.000675201416015625,0.00838851928710938,0,
00:00:02.612,2.288818359375E-05,-0.000652313232421875,0.00838851928710938,0,
00:00:02.616,2.288818359375E-05,-0.000652313232421875,0.00839424133300781,0,
00:00:02.62,1.71661376953125E-05,-0.0006866455078125,0.00839424133300781,0,
00:00:02.624,1.71661376953125E-05,-0.000698089599609375,0.00839424133300781,0,
00:00:02.628,1.71661376953125E-05,-0.000669479370117188,0.00839424133300781,0,
00:00:02.632,2.288818359375E-05,-0.000675201416015625,0.00839424133300781,0,
00:00:02.636,1.71661376953125E-05,-0.0006866455078125,0.00839424133300781,0,
00:00:02.64,1.71661376953125E-05,-0.000680923461914063,0.00839424133300781,0,
00:00:02.644,1.71661376953125E-05,-0.000658035278320313,0.00839996337890625,0,
00:00:02.648,1.71661376953125E-05,-0.000680923461914063,0.00839996337890625,0,
00:00:02.652,1.1444091796875E-05,-0.000692367553710938,0.00839996337890625,0,
00:00:02.656,1.71661376953125E-05,-0.000680923461914063,0.00839996337890625,0,
00:00:02.66,1.1444091796875E-05,-0.0006866455078125,0.00839996337890625,0,
00:00:02.664,1.1444091796875E-05,-0.0006866455078125,0.00839996337890625,0,
00:00:02.668,1.1444091796875E-05,-0.000680923461914063,0.00839996337890625,0,
00:00:02.672,1.1444091796875E-05,-0.000675201416015625,0.00839996337890625,0,
00:00:02.676,1.1444091796875E-05,-0.0006866455078125,0.00839996337890625,0,
00:00:02.68,5.7220458984375E-06,-0.000669479370117188,0.00839996337890625,0,
00:00:02.684,1.1444091796875E-05,-0.00066375732421875,0.00839996337890625,0,
00:00:02.688,5.7220458984375E-06,-0.000675201416015625,0.00839996337890625,0,
00:00:02.692,5.7220458984375E-06,-0.000675201416015625,0.00840568542480469,0,
00:00:02.696,5.7220458984375E-06,-0.000680923461914063,0.00840568542480469,0,
00:00:02.7,1.1444091796875E-05,-0.000680923461914063,0.00840568542480469,0,
00:00:02.704,5.7220458984375E-06,-0.000692367553710938,0.00839996337890625,0,
00:00:02.708,5.7220458984375E-06,-0.000680923461914063,0.00839996337890625,0,
00:00:02.712,5.7220458984375E-06,-0.000680923461914063,0.00839996337890625,0,
00:00:02.716,5.7220458984375E-06,-0.0006866455078125,0.00840568542480469,0,
00:00:02.72,5.7220458984375E-06,-0.00066375732421875,0.00840568542480469,0,
00:00:02.724,5.7220458984375E-06,-0.00066375732421875,0.00840568542480469,0,
00:00:02.728,5.7220458984375E-06,-0.000675201416015625,0.00839996337890625,0,
00:00:02.732,5.7220458984375E-06,-0.0006866455078125,0.00840568542480469,0,
00:00:02.736,0,-0.000675201416015625,0.00840568542480469,0,
00:00:02.74,0,-0.000675201416015625,0.00840568542480469,0,
00:00:02.744,0,-0.000692367553710938,0.00840568542480469,0,
00:00:02.748,0,-0.000692367553710938,0.00840568542480469,0,
00:00:02.752,5.7220458984375E-06,-0.000675201416015625,0.00840568542480469,0,
00:00:02.756,5.7220458984375E-06,-0.000658035278320313,0.00840568542480469,0,
00:00:02.76,1.1444091796875E-05,-0.00066375732421875,0.00840568542480469,0,
00:00:02.764,1.1444091796875E-05,-0.000680923461914063,0.00840568542480469,0,
00:00:02.768,5.7220458984375E-06,-0.0006866455078125,0.00841140747070313,0,
00:00:02.772,5.7220458984375E-06,-0.000680923461914063,0.00841140747070313,0,
00:00:02.776,5.7220458984375E-06,-0.000703811645507813,0.00841140747070313,0,
00:00:02.78,1.1444091796875E-05,-0.000698089599609375,0.00840568542480469,0,
00:00:02.784,1.1444091796875E-05,-0.000680923461914063,0.00840568542480469,0,
00:00:02.788,1.1444091796875E-05,-0.000680923461914063,0.00840568542480469,0,
00:00:02.792,1.1444091796875E-05,-0.0006866455078125,0.00840568542480469,0,
00:00:02.796,1.1444091796875E-05,-0.000669479370117188,0.00840568542480469,0,
00:00:02.8,5.7220458984375E-06,-0.000669479370117188,0.00840568542480469,0,
00:00:02.804,5.7220458984375E-06,-0.0006866455078125,0.00840568542480469,0,
00:00:02.808,5.7220458984375E-06,-0.000698089599609375,0.00840568542480469,0,
00:00:02.812,5.7220458984375E-06,-0.00070953369140625,0.00840568542480469,0,
00:00:02.816,5.7220458984375E-06,-0.0006866455078125,0.00840568542480469,0,
00:00:02.82,5.7220458984375E-06,-0.000669479370117188,0.00840568542480469,0,
00:00:02.824,1.1444091796875E-05,-0.00066375732421875,0.00840568542480469,0,
00:00:02.828,5.7220458984375E-06,-0.000675201416015625,0.00840568542480469,0,
00:00:02.832,5.7220458984375E-06,-0.000680923461914063,0.00840568542480469,0,
00:00:02.836,5.7220458984375E-06,-0.000669479370117188,0.00840568542480469,0,
00:00:02.84,5.7220458984375E-06,-0.000669479370117188,0.00841140747070313,0,
00:00:02.844,0,-0.000675201416015625,0.00841140747070313,0,
00:00:02.848,0,-0.000675201416015625,0.00841140747070313,0,
00:00:02.852,-5.7220458984375E-06,-0.0006866455078125,0.00841140747070313,0,
00:00:02.856,0,-0.000698089599609375,0.00840568542480469,0,
00:00:02.86,-5.7220458984375E-06,-0.00070953369140625,0.00840568542480469,0,
00:00:02.864,0,-0.000698089599609375,0.00841140747070313,0,
00:00:02.868,5.7220458984375E-06,-0.000658035278320313,0.00841140747070313,0,
00:00:02.872,5.7220458984375E-06,-0.000658035278320313,0.00841140747070313,0,
00:00:02.876,0,-0.000680923461914063,0.00840568542480469,0,
00:00:02.88,-5.7220458984375E-06,-0.000698089599609375,0.00840568542480469,0,
00:00:02.884,0,-0.0006866455078125,0.00840568542480469,0,
00:00:02.888,0,-0.000675201416015625,0.00841140747070313,0,
00:00:02.892,0,-0.000675201416015625,0.00840568542480469,0,
00:00:02.896,0,-0.000675201416015625,0.00840568542480469,0,
00:00:02.9,-5.7220458984375E-06,-0.000675201416015625,0.00840568542480469,0,
00:00:02.904,-5.7220458984375E-06,-0.0006866455078125,0.00840568542480469,0,
00:00:02.908,-5.7220458984375E-06,-0.000698089599609375,0.00841140747070313,0,
00:00:02.912,-5.7220458984375E-06,-0.00070953369140625,0.00841140747070313,0,
00:00:02.916,-5.7220458984375E-06,-0.000698089599609375,0.00841140747070313,0,
00:00:02.92,-5.7220458984375E-06,-0.000680923461914063,0.00840568542480469,0,
00:00:02.924,-5.7220458984375E-06,-0.000680923461914063,0.00841140747070313,0,
00:00:02.928,0,-0.000669479370117188,0.00841140747070313,0,
00:00:02.932,0,-0.000658035278320313,0.00841140747070313,0,
00:00:02.936,0,-0.000675201416015625,0.00841140747070313,0,
00:00:02.94,0,-0.0006866455078125,0.00841140747070313,0,
00:00:02.944,5.7220458984375E-06,-0.000669479370117188,0.00841140747070313,0,
00:00:02.948,0,-0.000703811645507813,0.00841140747070313,0,
00:00:02.952,-5.7220458984375E-06,-0.00070953369140625,0.00841140747070313,0,
00:00:02.956,0,-0.000669479370117188,0.00841140747070313,0,
00:00:02.96,0,-0.000669479370117188,0.00840568542480469,0,
00:00:02.964,5.7220458984375E-06,-0.000680923461914063,0.00840568542480469,0,
00:00:02.968,0,-0.0006866455078125,0.00840568542480469,0,
00:00:02.972,0,-0.0006866455078125,0.00841140747070313,0,
00:00:02.976,0,-0.0006866455078125,0.00841140747070313,0,
00:00:02.98,-5.7220458984375E-06,-0.000698089599609375,0.00840568542480469,0,
00:00:02.984,0,-0.000692367553710938,0.00841140747070313,0,
00:00:02.988,0,-0.000669479370117188,0.00841140747070313,0,
00:00:02.992,0,-0.000669479370117188,0.00840568542480469,0,
00:00:02.996,0,-0.000675201416015625,0.00840568542480469,0,
00:00:03,-5.7220458984375E-06,-0.000680923461914063,0.00840568542480469,0,
00:00:03.004,-5.7220458984375E-06,-0.0006866455078125,0.00840568542480469,0,
00:00:03.008,-1.1444091796875E-05,-0.000680923461914063,0.00840568542480469,0,
00:00:03.012,-1.1444091796875E-05,-0.000675201416015625,0.00840568542480469,0,
00:00:03.016,-1.1444091796875E-05,-0.0006866455078125,0.00840568542480469,0,
00:00:03.02,-5.7220458984375E-06,-0.000692367553710938,0.00840568542480469,0,
00:00:03.024,-5.7220458984375E-06,-0.000698089599609375,0.00840568542480469,0,
00:00:03.028,-5.7220458984375E-06,-0.00070953369140625,0.00840568542480469,0,
00:00:03.032,-5.7220458984375E-06,-0.000692367553710938,0.00840568542480469,0,
00:00:03.036,-5.7220458984375E-06,-0.000680923461914063,0.00840568542480469,0,
00:00:03.04,0,-0.000698089599609375,0.00840568542480469,0,
00:00:03.044,0,-0.000669479370117188,0.00840568542480469,0,
00:00:03.048,0,-0.000669479370117188,0.00841140747070313,0,
00:00:03.052,0,-0.000680923461914063,0.00841140747070313,0,
00:00:03.056,-5.7220458984375E-06,-0.000675201416015625,0.00841140747070313,0,
00:00:03.06,0,-0.0006866455078125,0.00840568542480469,0,
00:00:03.064,0,-0.000703811645507813,0.00840568542480469,0,
00:00:03.068,-5.7220458984375E-06,-0.00070953369140625,0.00840568542480469,0,
00:00:03.072,0,-0.0006866455078125,0.00840568542480469,0,
00:00:03.076,0,-0.000669479370117188,0.00840568542480469,0,
00:00:03.08,0,-0.00066375732421875,0.00840568542480469,0,
00:00:03.084,0,-0.00066375732421875,0.00840568542480469,0,
00:00:03.088,-5.7220458984375E-06,-0.000675201416015625,0.00840568542480469,0,
00:00:03.092,-5.7220458984375E-06,-0.000692367553710938,0.00840568542480469,0,
00:00:03.096,-5.7220458984375E-06,-0.000692367553710938,0.00840568542480469,0,
00:00:03.1,0,-0.000703811645507813,0.00839996337890625,0,
00:00:03.104,-5.7220458984375E-06,-0.00070953369140625,0.00839996337890625,0,
00:00:03.108,-5.7220458984375E-06,-0.000692367553710938,0.00839996337890625,0,
00:00:03.112,0,-0.0006866455078125,0.00839996337890625,0,
00:00:03.116,5.7220458984375E-06,-0.000675201416015625,0.00839996337890625,0,
00:00:03.12,-5.7220458984375E-06,-0.000669479370117188,0.00839996337890625,0,
00:00:03.124,-5.7220458984375E-06,-0.000692367553710938,0.00839996337890625,0,
00:00:03.128,0,-0.0006866455078125,0.00840568542480469,0,
00:00:03.132,0,-0.0006866455078125,0.00839996337890625,0,
00:00:03.136,0,-0.000698089599609375,0.00839996337890625,0,
00:00:03.14,-5.7220458984375E-06,-0.000680923461914063,0.00840568542480469,0,
00:00:03.144,0,-0.0006866455078125,0.00840568542480469,0,
00:00:03.148,5.7220458984375E-06,-0.000703811645507813,0.00840568542480469,0,
00:00:03.152,0,-0.00070953369140625,0.00840568542480469,0,
00:00:03.156,5.7220458984375E-06,-0.000692367553710938,0.00839996337890625,0,
00:00:03.16,5.7220458984375E-06,-0.000680923461914063,0.00839996337890625,0,
00:00:03.164,0,-0.000680923461914063,0.00839996337890625,0,
00:00:03.168,0,-0.000680923461914063,0.00839996337890625,0,
00:00:03.172,0,-0.000680923461914063,0.00839996337890625,0,
00:00:03.176,0,-0.0006866455078125,0.00839996337890625,0,
00:00:03.18,-1.1444091796875E-05,-0.000698089599609375,0.00839996337890625,0,
00:00:03.184,0,-0.00070953369140625,0.00839996337890625,0,
00:00:03.188,5.7220458984375E-06,-0.000703811645507813,0.00839996337890625,0,
00:00:03.192,0,-0.000698089599609375,0.00839996337890625,0,
00:00:03.196,0,-0.0006866455078125,0.00839996337890625,0,
00:00:03.2,5.7220458984375E-06,-0.000669479370117188,0.00839424133300781,0,
00:00:03.204,5.7220458984375E-06,-0.00066375732421875,0.00839424133300781,0,
00:00:03.208,5.7220458984375E-06,-0.000680923461914063,0.00839424133300781,0,
00:00:03.212,5.7220458984375E-06,-0.000680923461914063,0.00839424133300781,0,
00:00:03.216,5.7220458984375E-06,-0.0006866455078125,0.00839424133300781,0,
00:00:03.22,5.7220458984375E-06,-0.000680923461914063,0.00839424133300781,0,
00:00:03.224,0,-0.0006866455078125,0.00839424133300781,0,
00:00:03.228,0,-0.000703811645507813,0.00838851928710938,0,
00:00:03.232,0,-0.000703811645507813,0.00839424133300781,0,
00:00:03.236,-5.7220458984375E-06,-0.000715255737304688,0.00839424133300781,0,
00:00:03.24,0,-0.0006866455078125,0.00839424133300781,0,
00:00:03.244,5.7220458984375E-06,-0.00066375732421875,0.00839424133300781,0,
00:00:03.248,1.1444091796875E-05,-0.000680923461914063,0.00839424133300781,0,
00:00:03.252,5.7220458984375E-06,-0.000703811645507813,0.00838851928710938,0,
00:00:03.256,0,-0.000692367553710938,0.00838851928710938,0,
00:00:03.26,-5.7220458984375E-06,-0.0006866455078125,0.00838851928710938,0,
00:00:03.264,-5.7220458984375E-06,-0.000692367553710938,0.00838851928710938,0,
00:00:03.268,-5.7220458984375E-06,-0.000692367553710938,0.00838851928710938,0,
00:00:03.272,0,-0.000680923461914063,0.00838851928710938,0,
00:00:03.276,0,-0.0006866455078125,0.00838851928710938,0,
00:00:03.28,-5.7220458984375E-06,-0.0006866455078125,0.00838851928710938,0,
00:00:03.284,-1.1444091796875E-05,-0.000680923461914063,0.00838851928710938,0,
00:00:03.288,-5.7220458984375E-06,-0.000692367553710938,0.00838851928710938,0,
00:00:03.292,-5.7220458984375E-06,-0.0006866455078125,0.00838279724121094,0,
00:00:03.296,-5.7220458984375E-06,-0.000669479370117188,0.00838279724121094,0,
00:00:03.3,-5.7220458984375E-06,-0.000675201416015625,0.00838851928710938,0,
00:00:03.304,-5.7220458984375E-06,-0.000680923461914063,0.00838279724121094,0,
00:00:03.308,-1.1444091796875E-05,-0.0006866455078125,0.00838279724121094,0,
00:00:03.312,-5.7220458984375E-06,-0.000692367553710938,0.00838851928710938,0,
00:00:03.316,-5.7220458984375E-06,-0.000720977783203125,0.00838851928710938,0,
00:00:03.32,-1.1444091796875E-05,-0.00070953369140625,0.00838279724121094,0,
00:00:03.324,0,-0.000680923461914063,0.00838279724121094,0,
00:00:03.328,5.7220458984375E-06,-0.000669479370117188,0.00838279724121094,0,
00:00:03.332,0,-0.000675201416015625,0.00838279724121094,0,
00:00:03.336,0,-0.000698089599609375,0.00838279724121094,0,
00:00:03.34,-5.7220458984375E-06,-0.000703811645507813,0.00838279724121094,0,
00:00:03.344,-1.1444091796875E-05,-0.000698089599609375,0.00838279724121094,0,
00:00:03.348,-1.1444091796875E-05,-0.000698089599609375,0.00838279724121094,0,
00:00:03.352,0,-0.000680923461914063,0.00838279724121094,0,
00:00:03.356,-5.7220458984375E-06,-0.000680923461914063,0.0083770751953125,0,
00:00:03.36,-1.1444091796875E-05,-0.000692367553710938,0.0083770751953125,0,
00:00:03.364,-1.1444091796875E-05,-0.000698089599609375,0.0083770751953125,0,
00:00:03.368,-1.1444091796875E-05,-0.0006866455078125,0.0083770751953125,0,
00:00:03.372,-1.1444091796875E-05,-0.000692367553710938,0.0083770751953125,0,
00:00:03.376,-5.7220458984375E-06,-0.000692367553710938,0.0083770751953125,0,
00:00:03.38,-5.7220458984375E-06,-0.000692367553710938,0.00837135314941406,0,
00:00:03.384,-5.7220458984375E-06,-0.000698089599609375,0.00837135314941406,0,
00:00:03.388,-5.7220458984375E-06,-0.000698089599609375,0.00837135314941406,0,
00:00:03.392,-1.1444091796875E-05,-0.000726699829101563,0.00837135314941406,0,
00:00:03.396,-1.1444091796875E-05,-0.000743865966796875,0.00837135314941406,0,
00:00:03.4,-1.1444091796875E-05,-0.000692367553710938,0.00837135314941406,0,
00:00:03.404,-5.7220458984375E-06,-0.000652313232421875,0.00837135314941406,0,
00:00:03.408,0,-0.00066375732421875,0.00837135314941406,0,
00:00:03.412,0,-0.0006866455078125,0.00837135314941406,0,
00:00:03.416,-5.7220458984375E-06,-0.00070953369140625,0.00836563110351563,0,
00:00:03.42,-5.7220458984375E-06,-0.000698089599609375,0.00836563110351563,0,
00:00:03.424,-5.7220458984375E-06,-0.000680923461914063,0.00836563110351563,0,
00:00:03.428,-1.1444091796875E-05,-0.0006866455078125,0.00836563110351563,0,
00:00:03.432,-1.71661376953125E-05,-0.000692367553710938,0.00836563110351563,0,
00:00:03.436,-1.71661376953125E-05,-0.0006866455078125,0.00836563110351563,0,
00:00:03.44,-1.1444091796875E-05,-0.000692367553710938,0.00836563110351563,0,
00:00:03.444,-1.1444091796875E-05,-0.000692367553710938,0.00836563110351563,0,
00:00:03.448,-5.7220458984375E-06,-0.000675201416015625,0.00836563110351563,0,
00:00:03.452,0,-0.000680923461914063,0.00836563110351563,0,
00:00:03.456,-5.7220458984375E-06,-0.000692367553710938,0.00836563110351563,0,
00:00:03.46,-1.1444091796875E-05,-0.000692367553710938,0.00836563110351563,0,
00:00:03.464,-1.1444091796875E-05,-0.000675201416015625,0.00836563110351563,0,
00:00:03.468,-1.1444091796875E-05,-0.000680923461914063,0.00836563110351563,0,
00:00:03.472,-5.7220458984375E-06,-0.000680923461914063,0.00836563110351563,0,
00:00:03.476,-1.1444091796875E-05,-0.000703811645507813,0.00836563110351563,0,
00:00:03.48,-1.1444091796875E-05,-0.00070953369140625,0.00836563110351563,0,
00:00:03.484,-1.1444091796875E-05,-0.0006866455078125,0.00836563110351563,0,
00:00:03.488,-5.7220458984375E-06,-0.000675201416015625,0.00835990905761719,0,
00:00:03.492,-5.7220458984375E-06,-0.000680923461914063,0.00835990905761719,0,
00:00:03.496,-1.1444091796875E-05,-0.000698089599609375,0.00835990905761719,0,
00:00:03.5,-1.1444091796875E-05,-0.000692367553710938,0.00835990905761719,0,
00:00:03.504,-1.1444091796875E-05,-0.000692367553710938,0.00836563110351563,0,
00:00:03.508,-1.1444091796875E-05,-0.000698089599609375,0.00835990905761719,0,
00:00:03.512,-1.1444091796875E-05,-0.0006866455078125,0.00835990905761719,0,
00:00:03.516,-5.7220458984375E-06,-0.000669479370117188,0.00835990905761719,0,
00:00:03.52,-5.7220458984375E-06,-0.000680923461914063,0.00835990905761719,0,
00:00:03.524,-5.7220458984375E-06,-0.0006866455078125,0.00835418701171875,0,
00:00:03.528,-1.1444091796875E-05,-0.000698089599609375,0.00835418701171875,0,
00:00:03.532,-1.1444091796875E-05,-0.000680923461914063,0.00835418701171875,0,
00:00:03.536,-5.7220458984375E-06,-0.00066375732421875,0.00835418701171875,0,
00:00:03.54,-5.7220458984375E-06,-0.000675201416015625,0.00835418701171875,0,
00:00:03.544,-1.1444091796875E-05,-0.000698089599609375,0.00835418701171875,0,
00:00:03.548,-1.71661376953125E-05,-0.000698089599609375,0.00835418701171875,0,
00:00:03.552,-2.288818359375E-05,-0.000692367553710938,0.00835418701171875,0,
00:00:03.556,-1.1444091796875E-05,-0.000680923461914063,0.00835418701171875,0,
00:00:03.56,-5.7220458984375E-06,-0.000675201416015625,0.00834846496582031,0,
00:00:03.564,-5.7220458984375E-06,-0.000680923461914063,0.00834846496582031,0,
00:00:03.568,-1.1444091796875E-05,-0.000675201416015625,0.00834846496582031,0,
00:00:03.572,-1.71661376953125E-05,-0.000680923461914063,0.00834846496582031,0,
00:00:03.576,-1.1444091796875E-05,-0.000680923461914063,0.00834846496582031,0,
00:00:03.58,-1.1444091796875E-05,-0.000675201416015625,0.00834846496582031,0,
00:00:03.584,-1.1444091796875E-05,-0.000675201416015625,0.00834846496582031,0,
00:00:03.588,-1.1444091796875E-05,-0.000680923461914063,0.00834846496582031,0,
00:00:03.592,-1.71661376953125E-05,-0.000692367553710938,0.00834846496582031,0,
00:00:03.596,-2.288818359375E-05,-0.000703811645507813,0.00834846496582031,0,
00:00:03.6,-1.71661376953125E-05,-0.000698089599609375,0.00834846496582031,0,
00:00:03.604,-1.71661376953125E-05,-0.00070953369140625,0.00834846496582031,0,
00:00:03.608,-1.71661376953125E-05,-0.000726699829101563,0.00834846496582031,0,
00:00:03.612,-2.288818359375E-05,-0.000698089599609375,0.00834846496582031,0,
00:00:03.616,-1.71661376953125E-05,-0.000703811645507813,0.00834846496582031,0,
00:00:03.62,-1.1444091796875E-05,-0.000675201416015625,0.00834274291992188,0,
00:00:03.624,-1.1444091796875E-05,-0.00066375732421875,0.00834274291992188,0,
00:00:03.628,-1.1444091796875E-05,-0.00066375732421875,0.00834274291992188,0,
00:00:03.632,-1.71661376953125E-05,-0.000680923461914063,0.00834274291992188,0,
00:00:03.636,-2.288818359375E-05,-0.0006866455078125,0.00834274291992188,0,
00:00:03.64,-1.1444091796875E-05,-0.000680923461914063,0.00834274291992188,0,
00:00:03.644,-1.1444091796875E-05,-0.0006866455078125,0.00834274291992188,0,
00:00:03.648,-1.71661376953125E-05,-0.0006866455078125,0.00834274291992188,0,
00:00:03.652,-1.71661376953125E-05,-0.000680923461914063,0.00834274291992188,0,
00:00:03.656,-1.1444091796875E-05,-0.000680923461914063,0.00833702087402344,0,
00:00:03.66,-1.1444091796875E-05,-0.000675201416015625,0.00833702087402344,0,
00:00:03.664,-1.71661376953125E-05,-0.000675201416015625,0.00833702087402344,0,
00:00:03.668,-1.71661376953125E-05,-0.000680923461914063,0.00833702087402344,0,
00:00:03.672,-1.71661376953125E-05,-0.000692367553710938,0.00833702087402344,0,
00:00:03.676,-1.71661376953125E-05,-0.000692367553710938,0.00833702087402344,0,
00:00:03.68,-1.1444091796875E-05,-0.000680923461914063,0.00833702087402344,0,
00:00:03.684,-1.71661376953125E-05,-0.000680923461914063,0.00833702087402344,0,
00:00:03.688,-1.71661376953125E-05,-0.000680923461914063,0.00833702087402344,0,
00:00:03.692,-1.71661376953125E-05,-0.0006866455078125,0.00833702087402344,0,
00:00:03.696,-1.71661376953125E-05,-0.000692367553710938,0.008331298828125,0,
00:00:03.7,-1.71661376953125E-05,-0.000703811645507813,0.008331298828125,0,
00:00:03.704,-2.288818359375E-05,-0.00070953369140625,0.00833702087402344,0,
00:00:03.708,-2.288818359375E-05,-0.00070953369140625,0.00833702087402344,0,
00:00:03.712,-2.86102294921875E-05,-0.000715255737304688,0.00833702087402344,0,
00:00:03.716,-2.86102294921875E-05,-0.000703811645507813,0.00833702087402344,0,
00:00:03.72,-2.288818359375E-05,-0.000680923461914063,0.008331298828125,0,
00:00:03.724,-1.1444091796875E-05,-0.000652313232421875,0.008331298828125,0,
00:00:03.728,-1.1444091796875E-05,-0.000675201416015625,0.008331298828125,0,
00:00:03.732,-1.71661376953125E-05,-0.000692367553710938,0.008331298828125,0,
00:00:03.736,-2.288818359375E-05,-0.000698089599609375,0.008331298828125,0,
00:00:03.74,-2.288818359375E-05,-0.0006866455078125,0.00832557678222656,0,
00:00:03.744,-2.288818359375E-05,-0.000680923461914063,0.00832557678222656,0,
00:00:03.748,-2.288818359375E-05,-0.000680923461914063,0.008331298828125,0,
00:00:03.752,-2.86102294921875E-05,-0.000692367553710938,0.008331298828125,0,
00:00:03.756,-2.86102294921875E-05,-0.000698089599609375,0.008331298828125,0,
00:00:03.76,-2.288818359375E-05,-0.0006866455078125,0.00832557678222656,0,
00:00:03.764,-1.71661376953125E-05,-0.000675201416015625,0.00832557678222656,0,
00:00:03.768,-1.71661376953125E-05,-0.000675201416015625,0.00832557678222656,0,
00:00:03.772,-1.71661376953125E-05,-0.000692367553710938,0.00832557678222656,0,
00:00:03.776,-2.288818359375E-05,-0.0006866455078125,0.00832557678222656,0,
00:00:03.78,-2.86102294921875E-05,-0.000680923461914063,0.00832557678222656,0,
00:00:03.784,-2.288818359375E-05,-0.000680923461914063,0.00831985473632813,0,
00:00:03.788,-2.86102294921875E-05,-0.0006866455078125,0.00831985473632813,0,
00:00:03.792,-2.86102294921875E-05,-0.000692367553710938,0.00831985473632813,0,
00:00:03.796,-2.288818359375E-05,-0.000692367553710938,0.00832557678222656,0,
00:00:03.8,-2.86102294921875E-05,-0.000698089599609375,0.00831985473632813,0,
00:00:03.804,-2.86102294921875E-05,-0.000698089599609375,0.00831985473632813,0,
00:00:03.808,-2.86102294921875E-05,-0.000698089599609375,0.00831985473632813,0,
00:00:03.812,-3.4332275390625E-05,-0.00070953369140625,0.00831985473632813,0,
00:00:03.816,-2.86102294921875E-05,-0.000680923461914063,0.00831985473632813,0,
00:00:03.82,-2.86102294921875E-05,-0.000675201416015625,0.00831413269042969,0,
00:00:03.824,-2.288818359375E-05,-0.000698089599609375,0.00831413269042969,0,
00:00:03.828,-2.288818359375E-05,-0.000692367553710938,0.00831413269042969,0,
00:00:03.832,-2.86102294921875E-05,-0.000698089599609375,0.00831413269042969,0,
00:00:03.836,-3.4332275390625E-05,-0.00070953369140625,0.00831413269042969,0,
00:00:03.84,-3.4332275390625E-05,-0.000703811645507813,0.00831413269042969,0,
00:00:03.844,-3.4332275390625E-05,-0.000692367553710938,0.00831413269042969,0,
00:00:03.848,-2.86102294921875E-05,-0.0006866455078125,0.00831413269042969,0,
00:00:03.852,-2.86102294921875E-05,-0.000703811645507813,0.00831413269042969,0,
00:00:03.856,-2.288818359375E-05,-0.000692367553710938,0.00830841064453125,0,
00:00:03.86,-2.288818359375E-05,-0.0006866455078125,0.00830841064453125,0,
00:00:03.864,-2.86102294921875E-05,-0.000692367553710938,0.00830841064453125,0,
00:00:03.868,-2.86102294921875E-05,-0.0006866455078125,0.00830841064453125,0,
00:00:03.872,-2.86102294921875E-05,-0.000692367553710938,0.00830841064453125,0,
00:00:03.876,-2.288818359375E-05,-0.000692367553710938,0.00830841064453125,0,
00:00:03.88,-2.86102294921875E-05,-0.0006866455078125,0.00830841064453125,0,
00:00:03.884,-2.86102294921875E-05,-0.0006866455078125,0.00830841064453125,0,
00:00:03.888,-2.288818359375E-05,-0.0006866455078125,0.00830268859863281,0,
00:00:03.892,-2.288818359375E-05,-0.000680923461914063,0.00830268859863281,0,
00:00:03.896,-2.86102294921875E-05,-0.000698089599609375,0.00830268859863281,0,
00:00:03.9,-2.288818359375E-05,-0.000703811645507813,0.00830268859863281,0,
00:00:03.904,-2.86102294921875E-05,-0.000692367553710938,0.00830268859863281,0,
00:00:03.908,-2.288818359375E-05,-0.000692367553710938,0.00830268859863281,0,
00:00:03.912,-2.288818359375E-05,-0.000698089599609375,0.00830268859863281,0,
00:00:03.916,-2.288818359375E-05,-0.000680923461914063,0.00829696655273438,0,
00:00:03.92,-2.288818359375E-05,-0.00070953369140625,0.00829696655273438,0,
00:00:03.924,-2.288818359375E-05,-0.000738143920898438,0.00830268859863281,0,
00:00:03.928,-2.86102294921875E-05,-0.00070953369140625,0.00829696655273438,0,
00:00:03.932,-2.288818359375E-05,-0.000703811645507813,0.00829696655273438,0,
00:00:03.936,-2.86102294921875E-05,-0.000715255737304688,0.00829696655273438,0,
00:00:03.94,-2.86102294921875E-05,-0.000703811645507813,0.00829696655273438,0,
00:00:03.944,-2.86102294921875E-05,-0.000698089599609375,0.00829696655273438,0,
00:00:03.948,-2.288818359375E-05,-0.000692367553710938,0.00829696655273438,0,
00:00:03.952,-2.288818359375E-05,-0.000680923461914063,0.00829696655273438,0,
00:00:03.956,-2.288818359375E-05,-0.000669479370117188,0.00829696655273438,0,
00:00:03.96,-2.86102294921875E-05,-0.0006866455078125,0.00829696655273438,0,
00:00:03.964,-4.57763671875E-05,-0.000720977783203125,0.00829696655273438,0,
00:00:03.968,-4.57763671875E-05,-0.000715255737304688,0.00829696655273438,0,
00:00:03.972,-2.288818359375E-05,-0.000692367553710938,0.00829124450683594,0,
00:00:03.976,-1.71661376953125E-05,-0.000680923461914063,0.00829124450683594,0,
00:00:03.98,-1.71661376953125E-05,-0.000675201416015625,0.00829124450683594,0,
00:00:03.984,-2.288818359375E-05,-0.0006866455078125,0.00829124450683594,0,
00:00:03.988,-2.86102294921875E-05,-0.000698089599609375,0.00829124450683594,0,
00:00:03.992,-2.288818359375E-05,-0.000698089599609375,0.00829124450683594,0,
00:00:03.996,-2.86102294921875E-05,-0.000698089599609375,0.00829124450683594,0,
00:00:04,-2.86102294921875E-05,-0.000738143920898438,0.00829124450683594,0,
00:00:04.004,-2.86102294921875E-05,-0.000726699829101563,0.0082855224609375,0,
00:00:04.008,-2.86102294921875E-05,-0.000692367553710938,0.0082855224609375,0,
00:00:04.012,-2.86102294921875E-05,-0.0006866455078125,0.0082855224609375,0,
00:00:04.016,-2.288818359375E-05,-0.000692367553710938,0.0082855224609375,0,
00:00:04.02,-2.86102294921875E-05,-0.000692367553710938,0.0082855224609375,0,
00:00:04.024,-2.86102294921875E-05,-0.000692367553710938,0.0082855224609375,0,
00:00:04.028,-2.86102294921875E-05,-0.000692367553710938,0.0082855224609375,0,
00:00:04.032,-2.288818359375E-05,-0.0006866455078125,0.0082855224609375,0,
00:00:04.036,-2.86102294921875E-05,-0.000692367553710938,0.0082855224609375,0,
00:00:04.04,-2.86102294921875E-05,-0.000698089599609375,0.0082855224609375,0,
00:00:04.044,-2.86102294921875E-05,-0.000703811645507813,0.0082855224609375,0,
00:00:04.048,-2.288818359375E-05,-0.000703811645507813,0.0082855224609375,0,
00:00:04.052,-2.288818359375E-05,-0.000703811645507813,0.0082855224609375,0,
00:00:04.056,-2.288818359375E-05,-0.000692367553710938,0.00827980041503906,0,
00:00:04.06,-2.86102294921875E-05,-0.000698089599609375,0.00827980041503906,0,
00:00:04.064,-3.4332275390625E-05,-0.000715255737304688,0.00827980041503906,0,
00:00:04.068,-2.86102294921875E-05,-0.00070953369140625,0.00827980041503906,0,
00:00:04.072,-2.288818359375E-05,-0.0006866455078125,0.00827980041503906,0,
00:00:04.076,-1.1444091796875E-05,-0.000675201416015625,0.00827980041503906,0,
00:00:04.08,-1.1444091796875E-05,-0.000680923461914063,0.00827980041503906,0,
00:00:04.084,-2.288818359375E-05,-0.000715255737304688,0.00827980041503906,0,
00:00:04.088,-3.4332275390625E-05,-0.000720977783203125,0.00827980041503906,0,
00:00:04.092,-2.86102294921875E-05,-0.0006866455078125,0.00827980041503906,0,
00:00:04.096,-1.71661376953125E-05,-0.000692367553710938,0.00827980041503906,0,
00:00:04.1,-2.288818359375E-05,-0.00070953369140625,0.00827407836914063,0,
00:00:04.104,-2.288818359375E-05,-0.0006866455078125,0.00827407836914063,0,
00:00:04.108,-1.71661376953125E-05,-0.000669479370117188,0.00827407836914063,0,
00:00:04.112,-1.71661376953125E-05,-0.000675201416015625,0.00827407836914063,0,
00:00:04.116,-1.71661376953125E-05,-0.000680923461914063,0.00827407836914063,0,
00:00:04.12,-1.71661376953125E-05,-0.0006866455078125,0.00827407836914063,0,
00:00:04.124,-1.71661376953125E-05,-0.000692367553710938,0.00827407836914063,0,
00:00:04.128,-2.288818359375E-05,-0.000692367553710938,0.00827407836914063,0,
00:00:04.132,-2.288818359375E-05,-0.000698089599609375,0.00827407836914063,0,
00:00:04.136,-2.86102294921875E-05,-0.000703811645507813,0.00827407836914063,0,
00:00:04.14,-2.288818359375E-05,-0.000698089599609375,0.00827407836914063,0,
00:00:04.144,-2.288818359375E-05,-0.000698089599609375,0.00826835632324219,0,
00:00:04.148,-1.71661376953125E-05,-0.000692367553710938,0.00826835632324219,0,
00:00:04.152,-1.71661376953125E-05,-0.000692367553710938,0.00826835632324219,0,
00:00:04.156,-1.71661376953125E-05,-0.000698089599609375,0.00826835632324219,0,
00:00:04.16,-1.71661376953125E-05,-0.000703811645507813,0.00826835632324219,0,
00:00:04.164,-1.71661376953125E-05,-0.000692367553710938,0.00826835632324219,0,
00:00:04.168,-1.71661376953125E-05,-0.0006866455078125,0.00826835632324219,0,
00:00:04.172,-1.71661376953125E-05,-0.000692367553710938,0.00826835632324219,0,
00:00:04.176,-2.288818359375E-05,-0.000698089599609375,0.00826835632324219,0,
00:00:04.18,-1.71661376953125E-05,-0.000698089599609375,0.00826835632324219,0,
00:00:04.184,-2.288818359375E-05,-0.000698089599609375,0.00826835632324219,0,
00:00:04.188,-1.71661376953125E-05,-0.0006866455078125,0.00826263427734375,0,
00:00:04.192,-1.71661376953125E-05,-0.000692367553710938,0.00826263427734375,0,
00:00:04.196,-2.288818359375E-05,-0.00070953369140625,0.00826263427734375,0,
00:00:04.2,-2.86102294921875E-05,-0.000720977783203125,0.00826263427734375,0,
00:00:04.204,-2.288818359375E-05,-0.000703811645507813,0.00826263427734375,0,
00:00:04.208,-2.288818359375E-05,-0.0006866455078125,0.00826263427734375,0,
00:00:04.212,-2.288818359375E-05,-0.000680923461914063,0.00826263427734375,0,
00:00:04.216,-2.288818359375E-05,-0.000692367553710938,0.00826263427734375,0,
00:00:04.22,-2.288818359375E-05,-0.00070953369140625,0.00826263427734375,0,
00:00:04.224,-2.288818359375E-05,-0.000703811645507813,0.00826263427734375,0,
00:00:04.228,-2.288818359375E-05,-0.0006866455078125,0.00826263427734375,0,
00:00:04.232,-2.288818359375E-05,-0.000680923461914063,0.00826263427734375,0,
00:00:04.236,-2.288818359375E-05,-0.0006866455078125,0.00826263427734375,0,
00:00:04.24,-2.288818359375E-05,-0.000692367553710938,0.00826263427734375,0,
00:00:04.244,-2.86102294921875E-05,-0.0006866455078125,0.00826263427734375,0,
00:00:04.248,-3.4332275390625E-05,-0.000698089599609375,0.00826263427734375,0,
00:00:04.252,-3.4332275390625E-05,-0.000703811645507813,0.00825691223144531,0,
00:00:04.256,-2.86102294921875E-05,-0.00070953369140625,0.00825691223144531,0,
00:00:04.26,-3.4332275390625E-05,-0.000703811645507813,0.00826263427734375,0,
00:00:04.264,-2.86102294921875E-05,-0.000703811645507813,0.00826263427734375,0,
00:00:04.268,-2.288818359375E-05,-0.0006866455078125,0.00825691223144531,0,
00:00:04.272,-2.288818359375E-05,-0.000692367553710938,0.00826263427734375,0,
00:00:04.276,-2.86102294921875E-05,-0.000698089599609375,0.00825691223144531,0,
00:00:04.28,-2.86102294921875E-05,-0.000669479370117188,0.00825691223144531,0,
00:00:04.284,-1.71661376953125E-05,-0.00066375732421875,0.00825691223144531,0,
00:00:04.288,-1.71661376953125E-05,-0.000675201416015625,0.00825691223144531,0,
00:00:04.292,-1.71661376953125E-05,-0.0006866455078125,0.00825691223144531,0,
00:00:04.296,-1.71661376953125E-05,-0.000692367553710938,0.00825691223144531,0,
00:00:04.3,-2.288818359375E-05,-0.000726699829101563,0.00825691223144531,0,
00:00:04.304,-2.288818359375E-05,-0.000732421875,0.00825691223144531,0,
00:00:04.308,-2.288818359375E-05,-0.0006866455078125,0.00825119018554688,0,
00:00:04.312,-1.71661376953125E-05,-0.000640869140625,0.00825119018554688,0,
00:00:04.316,-5.7220458984375E-06,-0.000652313232421875,0.00825119018554688,0,
00:00:04.32,-1.1444091796875E-05,-0.000675201416015625,0.00825119018554688,0,
00:00:04.324,-1.1444091796875E-05,-0.000675201416015625,0.00825119018554688,0,
00:00:04.328,-1.1444091796875E-05,-0.000675201416015625,0.00825119018554688,0,
00:00:04.332,-1.71661376953125E-05,-0.000698089599609375,0.00825119018554688,0,
00:00:04.336,-1.71661376953125E-05,-0.000698089599609375,0.00825119018554688,0,
00:00:04.34,-1.1444091796875E-05,-0.000698089599609375,0.00825119018554688,0,
00:00:04.344,-1.71661376953125E-05,-0.000715255737304688,0.00825119018554688,0,
00:00:04.348,-1.71661376953125E-05,-0.0006866455078125,0.00825119018554688,0,
00:00:04.352,-1.71661376953125E-05,-0.000698089599609375,0.00825119018554688,0,
00:00:04.356,-1.71661376953125E-05,-0.000732421875,0.00825119018554688,0,
00:00:04.36,-1.71661376953125E-05,-0.000720977783203125,0.00825119018554688,0,
00:00:04.364,-1.1444091796875E-05,-0.000675201416015625,0.00825119018554688,0,
00:00:04.368,-5.7220458984375E-06,-0.00066375732421875,0.00824546813964844,0,
00:00:04.372,-5.7220458984375E-06,-0.000652313232421875,0.00824546813964844,0,
00:00:04.376,-5.7220458984375E-06,-0.00066375732421875,0.00824546813964844,0,
00:00:04.38,-1.1444091796875E-05,-0.000680923461914063,0.00824546813964844,0,
00:00:04.384,-1.1444091796875E-05,-0.000692367553710938,0.00824546813964844,0,
00:00:04.388,-1.1444091796875E-05,-0.0006866455078125,0.00824546813964844,0,
00:00:04.392,-1.71661376953125E-05,-0.0006866455078125,0.00824546813964844,0,
00:00:04.396,-1.71661376953125E-05,-0.000692367553710938,0.00824546813964844,0,
00:00:04.4,-1.71661376953125E-05,-0.000680923461914063,0.00824546813964844,0,
00:00:04.404,-1.71661376953125E-05,-0.000680923461914063,0.00824546813964844,0,
00:00:04.408,-2.288818359375E-05,-0.000692367553710938,0.00824546813964844,0,
00:00:04.412,-2.86102294921875E-05,-0.000680923461914063,0.00824546813964844,0,
00:00:04.416,-2.288818359375E-05,-0.000692367553710938,0.00823974609375,0,
00:00:04.42,-1.71661376953125E-05,-0.0006866455078125,0.00823974609375,0,
00:00:04.424,-2.288818359375E-05,-0.000680923461914063,0.00824546813964844,0,
00:00:04.428,-1.71661376953125E-05,-0.000692367553710938,0.00824546813964844,0,
00:00:04.432,-1.71661376953125E-05,-0.0006866455078125,0.00823974609375,0,
00:00:04.436,-2.288818359375E-05,-0.000715255737304688,0.00823974609375,0,
00:00:04.44,-2.86102294921875E-05,-0.000749588012695313,0.00823974609375,0,
00:00:04.444,-2.86102294921875E-05,-0.000732421875,0.00823974609375,0,
00:00:04.448,-2.288818359375E-05,-0.000698089599609375,0.00823974609375,0,
00:00:04.452,-1.71661376953125E-05,-0.000658035278320313,0.00823974609375,0,
00:00:04.456,-1.71661376953125E-05,-0.00066375732421875,0.00823974609375,0,
00:00:04.46,-2.288818359375E-05,-0.000680923461914063,0.00823974609375,0,
00:00:04.464,-2.288818359375E-05,-0.000680923461914063,0.00823974609375,0,
00:00:04.468,-1.71661376953125E-05,-0.000680923461914063,0.00823974609375,0,
00:00:04.472,-1.1444091796875E-05,-0.000675201416015625,0.00823974609375,0,
00:00:04.476,-1.71661376953125E-05,-0.0006866455078125,0.00823974609375,0,
00:00:04.48,-2.288818359375E-05,-0.000698089599609375,0.00823974609375,0,
00:00:04.484,-1.71661376953125E-05,-0.000680923461914063,0.00823974609375,0,
00:00:04.488,-1.1444091796875E-05,-0.00066375732421875,0.00823974609375,0,
00:00:04.492,-1.71661376953125E-05,-0.000669479370117188,0.00823402404785156,0,
00:00:04.496,-1.71661376953125E-05,-0.0006866455078125,0.00823402404785156,0,
00:00:04.5,-1.71661376953125E-05,-0.000680923461914063,0.00823402404785156,0,
00:00:04.504,-1.1444091796875E-05,-0.000669479370117188,0.00823402404785156,0,
00:00:04.508,-1.1444091796875E-05,-0.000680923461914063,0.00823402404785156,0,
00:00:04.512,-1.71661376953125E-05,-0.000675201416015625,0.00823402404785156,0,
00:00:04.516,-1.71661376953125E-05,-0.000675201416015625,0.00823402404785156,0,
00:00:04.52,-1.71661376953125E-05,-0.000698089599609375,0.00823402404785156,0,
00:00:04.524,-1.71661376953125E-05,-0.000703811645507813,0.00823402404785156,0,
00:00:04.528,-2.288818359375E-05,-0.000698089599609375,0.00823402404785156,0,
00:00:04.532,-2.288818359375E-05,-0.0006866455078125,0.00823402404785156,0,
00:00:04.536,-2.86102294921875E-05,-0.00066375732421875,0.00823402404785156,0,
00:00:04.54,-2.288818359375E-05,-0.000680923461914063,0.00823402404785156,0,
00:00:04.544,-2.288818359375E-05,-0.000698089599609375,0.00823402404785156,0,
00:00:04.548,-2.288818359375E-05,-0.000715255737304688,0.00822830200195313,0,
00:00:04.552,-2.86102294921875E-05,-0.00070953369140625,0.00822830200195313,0,
00:00:04.556,-2.86102294921875E-05,-0.000692367553710938,0.00822830200195313,0,
00:00:04.56,-2.288818359375E-05,-0.00066375732421875,0.00822830200195313,0,
00:00:04.564,-1.71661376953125E-05,-0.000669479370117188,0.00822830200195313,0,
00:00:04.568,-2.288818359375E-05,-0.000680923461914063,0.00822830200195313,0,
00:00:04.572,-2.288818359375E-05,-0.000669479370117188,0.00823402404785156,0,
00:00:04.576,-2.288818359375E-05,-0.00066375732421875,0.00823402404785156,0,
00:00:04.58,-2.288818359375E-05,-0.000669479370117188,0.00822830200195313,0,
00:00:04.584,-2.288818359375E-05,-0.000669479370117188,0.00822830200195313,0,
00:00:04.588,-2.86102294921875E-05,-0.000680923461914063,0.00823402404785156,0,
00:00:04.592,-2.86102294921875E-05,-0.000675201416015625,0.00823402404785156,0,
00:00:04.596,-2.86102294921875E-05,-0.000675201416015625,0.00823402404785156,0,
00:00:04.6,-2.86102294921875E-05,-0.000675201416015625,0.00822830200195313,0,
00:00:04.604,-2.86102294921875E-05,-0.000675201416015625,0.00823402404785156,0,
00:00:04.608,-2.86102294921875E-05,-0.0006866455078125,0.00822830200195313,0,
00:00:04.612,-2.86102294921875E-05,-0.000692367553710938,0.00822830200195313,0,
00:00:04.616,-3.4332275390625E-05,-0.000703811645507813,0.00822830200195313,0,
00:00:04.62,-3.4332275390625E-05,-0.0006866455078125,0.00822830200195313,0,
00:00:04.624,-2.86102294921875E-05,-0.0006866455078125,0.00822830200195313,0,
00:00:04.628,-2.288818359375E-05,-0.000680923461914063,0.00822830200195313,0,
00:00:04.632,-2.288818359375E-05,-0.00066375732421875,0.00822830200195313,0,
00:00:04.636,-2.86102294921875E-05,-0.000675201416015625,0.00822830200195313,0,
00:00:04.64,-2.86102294921875E-05,-0.000680923461914063,0.00822830200195313,0,
00:00:04.644,-3.4332275390625E-05,-0.000692367553710938,0.00822830200195313,0,
00:00:04.648,-3.4332275390625E-05,-0.0006866455078125,0.00822830200195313,0,
00:00:04.652,-2.288818359375E-05,-0.000680923461914063,0.00822257995605469,0,
00:00:04.656,-2.86102294921875E-05,-0.000680923461914063,0.00822257995605469,0,
00:00:04.66,-2.86102294921875E-05,-0.000680923461914063,0.00822257995605469,0,
00:00:04.664,-2.86102294921875E-05,-0.000669479370117188,0.00822830200195313,0,
00:00:04.668,-2.288818359375E-05,-0.000658035278320313,0.00822830200195313,0,
00:00:04.672,-2.86102294921875E-05,-0.00066375732421875,0.00822257995605469,0,
00:00:04.676,-2.86102294921875E-05,-0.00066375732421875,0.00822257995605469,0,
00:00:04.68,-2.288818359375E-05,-0.000675201416015625,0.00822257995605469,0,
00:00:04.684,-2.288818359375E-05,-0.000680923461914063,0.00822257995605469,0,
00:00:04.688,-2.288818359375E-05,-0.000680923461914063,0.00822257995605469,0,
00:00:04.692,-1.71661376953125E-05,-0.000675201416015625,0.00821685791015625,0,
00:00:04.696,-2.288818359375E-05,-0.00066375732421875,0.00821685791015625,0,
00:00:04.7,-2.288818359375E-05,-0.00066375732421875,0.00822257995605469,0,
00:00:04.704,-2.288818359375E-05,-0.00066375732421875,0.00822257995605469,0,
00:00:04.708,-2.288818359375E-05,-0.00066375732421875,0.00822257995605469,0,
00:00:04.712,-2.86102294921875E-05,-0.000675201416015625,0.00821685791015625,0,
00:00:04.716,-2.86102294921875E-05,-0.000675201416015625,0.00822257995605469,0,
00:00:04.72,-2.86102294921875E-05,-0.0006866455078125,0.00821685791015625,0,
00:00:04.724,-3.4332275390625E-05,-0.000703811645507813,0.00822257995605469,0,
00:00:04.728,-3.4332275390625E-05,-0.00070953369140625,0.00822257995605469,0,
00:00:04.732,-3.4332275390625E-05,-0.000692367553710938,0.00821685791015625,0,
00:00:04.736,-2.86102294921875E-05,-0.000658035278320313,0.00821685791015625,0,
00:00:04.74,-2.288818359375E-05,-0.000652313232421875,0.00821685791015625,0,
00:00:04.744,-2.86102294921875E-05,-0.000658035278320313,0.00821685791015625,0,
00:00:04.748,-2.86102294921875E-05,-0.000669479370117188,0.00821685791015625,0,
00:00:04.752,-4.00543212890625E-05,-0.000692367553710938,0.00821685791015625,0,
00:00:04.756,-3.4332275390625E-05,-0.0006866455078125,0.00821685791015625,0,
00:00:04.76,-2.86102294921875E-05,-0.000675201416015625,0.00821685791015625,0,
00:00:04.764,-2.86102294921875E-05,-0.000675201416015625,0.00821685791015625,0,
00:00:04.768,-2.86102294921875E-05,-0.000669479370117188,0.00821685791015625,0,
00:00:04.772,-2.86102294921875E-05,-0.00066375732421875,0.00821685791015625,0,
00:00:04.776,-2.86102294921875E-05,-0.0006866455078125,0.00821685791015625,0,
00:00:04.78,-3.4332275390625E-05,-0.000680923461914063,0.00821685791015625,0,
00:00:04.784,-2.86102294921875E-05,-0.000675201416015625,0.00821685791015625,0,
00:00:04.788,-2.288818359375E-05,-0.00066375732421875,0.00821685791015625,0,
00:00:04.792,-2.86102294921875E-05,-0.00066375732421875,0.00821685791015625,0,
00:00:04.796,-2.288818359375E-05,-0.000680923461914063,0.00821685791015625,0,
00:00:04.8,-1.71661376953125E-05,-0.000680923461914063,0.00821685791015625,0,
00:00:04.804,-2.288818359375E-05,-0.0006866455078125,0.00821685791015625,0,
00:00:04.808,-2.288818359375E-05,-0.0006866455078125,0.00821685791015625,0,
00:00:04.812,-2.288818359375E-05,-0.000698089599609375,0.00821685791015625,0,
00:00:04.816,-2.86102294921875E-05,-0.000703811645507813,0.00821685791015625,0,
00:00:04.82,-2.86102294921875E-05,-0.000680923461914063,0.00821685791015625,0,
00:00:04.824,-1.71661376953125E-05,-0.000652313232421875,0.00821685791015625,0,
00:00:04.828,-1.71661376953125E-05,-0.00066375732421875,0.00821685791015625,0,
00:00:04.832,-2.86102294921875E-05,-0.0006866455078125,0.00821685791015625,0,
00:00:04.836,-2.86102294921875E-05,-0.00070953369140625,0.00822257995605469,0,
00:00:04.84,-2.86102294921875E-05,-0.000703811645507813,0.00822257995605469,0,
00:00:04.844,-2.86102294921875E-05,-0.000703811645507813,0.00821685791015625,0,
00:00:04.848,-2.288818359375E-05,-0.000675201416015625,0.00822257995605469,0,
00:00:04.852,-1.71661376953125E-05,-0.000646591186523438,0.00822257995605469,0,
00:00:04.856,-1.71661376953125E-05,-0.000652313232421875,0.00822257995605469,0,
00:00:04.86,-2.288818359375E-05,-0.000658035278320313,0.00822257995605469,0,
00:00:04.864,-2.288818359375E-05,-0.000675201416015625,0.00822257995605469,0,
00:00:04.868,-2.288818359375E-05,-0.000675201416015625,0.00822257995605469,0,
00:00:04.872,-2.288818359375E-05,-0.000675201416015625,0.00822257995605469,0,
00:00:04.876,-2.288818359375E-05,-0.000669479370117188,0.00822257995605469,0,
00:00:04.88,-2.288818359375E-05,-0.000669479370117188,0.00821685791015625,0,
00:00:04.884,-2.288818359375E-05,-0.000669479370117188,0.00821685791015625,0,
00:00:04.888,-2.86102294921875E-05,-0.000680923461914063,0.00822257995605469,0,
00:00:04.892,-2.86102294921875E-05,-0.0006866455078125,0.00822257995605469,0,
00:00:04.896,-2.86102294921875E-05,-0.000692367553710938,0.00822257995605469,0,
00:00:04.9,-2.288818359375E-05,-0.000692367553710938,0.00822257995605469,0,
00:00:04.904,-2.86102294921875E-05,-0.000703811645507813,0.00822830200195313,0,
00:00:04.908,-2.86102294921875E-05,-0.000703811645507813,0.00822830200195313,0,
00:00:04.912,-2.288818359375E-05,-0.000675201416015625,0.00822830200195313,0,
00:00:04.916,-1.71661376953125E-05,-0.000652313232421875,0.00822257995605469,0,
00:00:04.92,-1.71661376953125E-05,-0.000669479370117188,0.00822257995605469,0,
00:00:04.924,-2.288818359375E-05,-0.000675201416015625,0.00822830200195313,0,
00:00:04.928,-1.71661376953125E-05,-0.000680923461914063,0.00822830200195313,0,
00:00:04.932,-2.86102294921875E-05,-0.0006866455078125,0.00822830200195313,0,
00:00:04.936,-2.86102294921875E-05,-0.000680923461914063,0.00822257995605469,0,
00:00:04.94,-2.288818359375E-05,-0.000675201416015625,0.00822257995605469,0,
00:00:04.944,-2.86102294921875E-05,-0.000680923461914063,0.00822830200195313,0,
00:00:04.948,-2.86102294921875E-05,-0.000692367553710938,0.00822830200195313,0,
00:00:04.952,-2.86102294921875E-05,-0.000698089599609375,0.00823402404785156,0,
00:00:04.956,-2.86102294921875E-05,-0.000715255737304688,0.00823402404785156,0,
00:00:04.96,-2.86102294921875E-05,-0.0006866455078125,0.00822830200195313,0,
00:00:04.964,-2.288818359375E-05,-0.000658035278320313,0.00823402404785156,0,
00:00:04.968,-1.71661376953125E-05,-0.00066375732421875,0.00822830200195313,0,
00:00:04.972,-2.288818359375E-05,-0.000669479370117188,0.00823402404785156,0,
00:00:04.976,-2.288818359375E-05,-0.000675201416015625,0.00823402404785156,0,
00:00:04.98,-2.288818359375E-05,-0.000675201416015625,0.00823402404785156,0,
00:00:04.984,-2.288818359375E-05,-0.000669479370117188,0.00823402404785156,0,
00:00:04.988,-2.288818359375E-05,-0.000675201416015625,0.00823402404785156,0,
00:00:04.992,-2.288818359375E-05,-0.0006866455078125,0.00823402404785156,0,
00:00:04.996,-2.86102294921875E-05,-0.000692367553710938,0.00823402404785156,0,
00:00:05,-2.86102294921875E-05,-0.000698089599609375,0.00823402404785156,0,
00:00:05.004,-2.288818359375E-05,-0.000675201416015625,0.00823402404785156,0,
00:00:05.008,-1.71661376953125E-05,-0.00066375732421875,0.00823974609375,0,
00:00:05.012,-2.288818359375E-05,-0.00066375732421875,0.00823402404785156,0,
00:00:05.016,-2.86102294921875E-05,-0.000658035278320313,0.00823402404785156,0,
00:00:05.02,-2.86102294921875E-05,-0.000658035278320313,0.00823402404785156,0,
00:00:05.024,-2.288818359375E-05,-0.000669479370117188,0.00823402404785156,0,
00:00:05.028,-1.71661376953125E-05,-0.000675201416015625,0.00823402404785156,0,
00:00:05.032,-1.71661376953125E-05,-0.000675201416015625,0.00823402404785156,0,
00:00:05.036,-2.288818359375E-05,-0.000680923461914063,0.00823402404785156,0,
00:00:05.04,-2.288818359375E-05,-0.0006866455078125,0.00823402404785156,0,
00:00:05.044,-2.288818359375E-05,-0.000680923461914063,0.00823402404785156,0,
00:00:05.048,-2.288818359375E-05,-0.000680923461914063,0.00823402404785156,0,
00:00:05.052,-2.86102294921875E-05,-0.000675201416015625,0.00823402404785156,0,
00:00:05.056,-2.86102294921875E-05,-0.000669479370117188,0.00823974609375,0,
00:00:05.06,-3.4332275390625E-05,-0.00066375732421875,0.00823974609375,0,
00:00:05.064,-3.4332275390625E-05,-0.000703811645507813,0.00823974609375,0,
00:00:05.068,-2.288818359375E-05,-0.000703811645507813,0.00823974609375,0,
00:00:05.072,-2.288818359375E-05,-0.0006866455078125,0.00823974609375,0,
00:00:05.076,-2.288818359375E-05,-0.000652313232421875,0.00823974609375,0,
00:00:05.08,-1.71661376953125E-05,-0.000640869140625,0.00823974609375,0,
00:00:05.084,-1.1444091796875E-05,-0.000640869140625,0.00823974609375,0,
00:00:05.088,-1.1444091796875E-05,-0.000646591186523438,0.00823974609375,0,
00:00:05.092,-1.71661376953125E-05,-0.000658035278320313,0.00824546813964844,0,
00:00:05.096,-1.71661376953125E-05,-0.00066375732421875,0.00824546813964844,0,
00:00:05.1,-2.288818359375E-05,-0.000669479370117188,0.00824546813964844,0,
00:00:05.104,-2.288818359375E-05,-0.000669479370117188,0.00824546813964844,0,
00:00:05.108,-2.86102294921875E-05,-0.000669479370117188,0.00824546813964844,0,
00:00:05.112,-2.288818359375E-05,-0.000669479370117188,0.00824546813964844,0,
00:00:05.116,-1.71661376953125E-05,-0.00066375732421875,0.00824546813964844,0,
00:00:05.12,-1.71661376953125E-05,-0.000680923461914063,0.00824546813964844,0,
00:00:05.124,-2.86102294921875E-05,-0.000698089599609375,0.00825119018554688,0,
00:00:05.128,-2.86102294921875E-05,-0.0006866455078125,0.00824546813964844,0,
00:00:05.132,-2.86102294921875E-05,-0.000658035278320313,0.00824546813964844,0,
00:00:05.136,-2.86102294921875E-05,-0.000669479370117188,0.00824546813964844,0,
00:00:05.14,-1.71661376953125E-05,-0.000669479370117188,0.00824546813964844,0,
00:00:05.144,-1.71661376953125E-05,-0.000652313232421875,0.00824546813964844,0,
00:00:05.148,-1.71661376953125E-05,-0.000658035278320313,0.00824546813964844,0,
00:00:05.152,-1.71661376953125E-05,-0.000680923461914063,0.00825119018554688,0,
00:00:05.156,-2.288818359375E-05,-0.000680923461914063,0.00825119018554688,0,
00:00:05.16,-2.86102294921875E-05,-0.000680923461914063,0.00825119018554688,0,
00:00:05.164,-2.288818359375E-05,-0.000675201416015625,0.00825691223144531,0,
00:00:05.168,-1.71661376953125E-05,-0.000652313232421875,0.00825119018554688,0,
00:00:05.172,-1.1444091796875E-05,-0.000640869140625,0.00825691223144531,0,
00:00:05.176,-1.71661376953125E-05,-0.000652313232421875,0.00825691223144531,0,
00:00:05.18,-1.71661376953125E-05,-0.000658035278320313,0.00825691223144531,0,
00:00:05.184,-1.71661376953125E-05,-0.00066375732421875,0.00825691223144531,0,
00:00:05.188,-2.288818359375E-05,-0.0006866455078125,0.00825691223144531,0,
00:00:05.192,-2.288818359375E-05,-0.000698089599609375,0.00826263427734375,0,
00:00:05.196,-2.86102294921875E-05,-0.0006866455078125,0.00826263427734375,0,
00:00:05.2,-2.288818359375E-05,-0.00066375732421875,0.00826263427734375,0,
00:00:05.204,-1.71661376953125E-05,-0.000658035278320313,0.00826263427734375,0,
00:00:05.208,-1.71661376953125E-05,-0.000658035278320313,0.00826835632324219,0,
00:00:05.212,-1.71661376953125E-05,-0.00066375732421875,0.00826835632324219,0,
00:00:05.216,-2.86102294921875E-05,-0.000675201416015625,0.00826835632324219,0,
00:00:05.22,-2.86102294921875E-05,-0.000675201416015625,0.00826835632324219,0,
00:00:05.224,-3.4332275390625E-05,-0.000715255737304688,0.00826835632324219,0,
00:00:05.228,-3.4332275390625E-05,-0.000680923461914063,0.00827407836914063,0,
00:00:05.232,-2.288818359375E-05,-0.000646591186523438,0.00827407836914063,0,
00:00:05.236,-1.71661376953125E-05,-0.000652313232421875,0.00826835632324219,0,
00:00:05.24,-1.1444091796875E-05,-0.000646591186523438,0.00826835632324219,0,
00:00:05.244,-1.1444091796875E-05,-0.000658035278320313,0.00827407836914063,0,
00:00:05.248,-1.71661376953125E-05,-0.000669479370117188,0.00826835632324219,0,
00:00:05.252,-1.71661376953125E-05,-0.000680923461914063,0.00827407836914063,0,
00:00:05.256,-2.288818359375E-05,-0.000698089599609375,0.00827407836914063,0,
00:00:05.26,-2.86102294921875E-05,-0.0006866455078125,0.00827407836914063,0,
00:00:05.264,-2.86102294921875E-05,-0.000675201416015625,0.00827407836914063,0,
00:00:05.268,-2.288818359375E-05,-0.000652313232421875,0.00827407836914063,0,
00:00:05.272,-2.288818359375E-05,-0.000658035278320313,0.00827980041503906,0,
00:00:05.276,-2.288818359375E-05,-0.000669479370117188,0.00827980041503906,0,
00:00:05.28,-2.288818359375E-05,-0.000669479370117188,0.00827980041503906,0,
00:00:05.284,-2.288818359375E-05,-0.000669479370117188,0.00827980041503906,0,
00:00:05.288,-2.288818359375E-05,-0.000692367553710938,0.0082855224609375,0,
00:00:05.292,-4.00543212890625E-05,-0.000726699829101563,0.0082855224609375,0,
00:00:05.296,-4.00543212890625E-05,-0.000698089599609375,0.0082855224609375,0,
00:00:05.3,-2.288818359375E-05,-0.000675201416015625,0.0082855224609375,0,
00:00:05.304,-1.1444091796875E-05,-0.000675201416015625,0.0082855224609375,0,
00:00:05.308,-2.288818359375E-05,-0.000658035278320313,0.0082855224609375,0,
00:00:05.312,-2.288818359375E-05,-0.000646591186523438,0.0082855224609375,0,
00:00:05.316,-1.1444091796875E-05,-0.000658035278320313,0.0082855224609375,0,
00:00:05.32,-1.71661376953125E-05,-0.00066375732421875,0.0082855224609375,0,
00:00:05.324,-1.71661376953125E-05,-0.000675201416015625,0.00829124450683594,0,
00:00:05.328,-2.288818359375E-05,-0.00070953369140625,0.00829124450683594,0,
00:00:05.332,-2.86102294921875E-05,-0.000715255737304688,0.00829124450683594,0,
00:00:05.336,-2.288818359375E-05,-0.0006866455078125,0.00829696655273438,0,
00:00:05.34,-1.71661376953125E-05,-0.00066375732421875,0.00829696655273438,0,
00:00:05.344,-1.1444091796875E-05,-0.000652313232421875,0.00829696655273438,0,
00:00:05.348,-1.71661376953125E-05,-0.000658035278320313,0.00829696655273438,0,
00:00:05.352,-1.71661376953125E-05,-0.00066375732421875,0.00829696655273438,0,
00:00:05.356,-1.1444091796875E-05,-0.000669479370117188,0.00829696655273438,0,
00:00:05.36,-1.71661376953125E-05,-0.000669479370117188,0.00829696655273438,0,
00:00:05.364,-1.71661376953125E-05,-0.0006866455078125,0.00830268859863281,0,
00:00:05.368,-1.71661376953125E-05,-0.000703811645507813,0.00830268859863281,0,
00:00:05.372,-1.71661376953125E-05,-0.0006866455078125,0.00830268859863281,0,
00:00:05.376,-1.1444091796875E-05,-0.00066375732421875,0.00830268859863281,0,
00:00:05.38,-5.7220458984375E-06,-0.000669479370117188,0.00830268859863281,0,
00:00:05.384,-1.1444091796875E-05,-0.000692367553710938,0.00830268859863281,0,
00:00:05.388,-1.71661376953125E-05,-0.000692367553710938,0.00830268859863281,0,
00:00:05.392,-1.71661376953125E-05,-0.000675201416015625,0.00830841064453125,0,
00:00:05.396,-1.1444091796875E-05,-0.0006866455078125,0.00830841064453125,0,
00:00:05.4,-1.1444091796875E-05,-0.000680923461914063,0.00830841064453125,0,
00:00:05.404,-1.1444091796875E-05,-0.000669479370117188,0.00830841064453125,0,
00:00:05.408,-5.7220458984375E-06,-0.000669479370117188,0.00830841064453125,0,
00:00:05.412,-1.1444091796875E-05,-0.000669479370117188,0.00831413269042969,0,
00:00:05.416,-1.1444091796875E-05,-0.000675201416015625,0.00831413269042969,0,
00:00:05.42,-5.7220458984375E-06,-0.000675201416015625,0.00831413269042969,0,
00:00:05.424,-5.7220458984375E-06,-0.000658035278320313,0.00831985473632813,0,
00:00:05.428,-1.71661376953125E-05,-0.000675201416015625,0.00831985473632813,0,
00:00:05.432,-1.71661376953125E-05,-0.000692367553710938,0.00831985473632813,0,
00:00:05.436,-1.71661376953125E-05,-0.000698089599609375,0.00831985473632813,0,
00:00:05.44,-1.71661376953125E-05,-0.000680923461914063,0.00832557678222656,0,
00:00:05.444,-1.71661376953125E-05,-0.00066375732421875,0.00832557678222656,0,
00:00:05.448,-1.1444091796875E-05,-0.00066375732421875,0.00832557678222656,0,
00:00:05.452,-5.7220458984375E-06,-0.000658035278320313,0.00832557678222656,0,
00:00:05.456,-5.7220458984375E-06,-0.00066375732421875,0.00832557678222656,0,
00:00:05.46,-1.1444091796875E-05,-0.000669479370117188,0.008331298828125,0,
00:00:05.464,-1.71661376953125E-05,-0.000680923461914063,0.008331298828125,0,
00:00:05.468,-1.71661376953125E-05,-0.00070953369140625,0.008331298828125,0,
00:00:05.472,-2.86102294921875E-05,-0.000715255737304688,0.008331298828125,0,
00:00:05.476,-2.86102294921875E-05,-0.0006866455078125,0.008331298828125,0,
00:00:05.48,-1.1444091796875E-05,-0.00066375732421875,0.008331298828125,0,
00:00:05.484,0,-0.00066375732421875,0.008331298828125,0,
00:00:05.488,-1.1444091796875E-05,-0.000675201416015625,0.00833702087402344,0,
00:00:05.492,-1.1444091796875E-05,-0.000680923461914063,0.00833702087402344,0,
00:00:05.496,-1.1444091796875E-05,-0.000669479370117188,0.00833702087402344,0,
00:00:05.5,-1.1444091796875E-05,-0.000675201416015625,0.00833702087402344,0,
00:00:05.504,-1.1444091796875E-05,-0.000698089599609375,0.00834274291992188,0,
00:00:05.508,-1.1444091796875E-05,-0.000692367553710938,0.00834274291992188,0,
00:00:05.512,-1.1444091796875E-05,-0.000698089599609375,0.00834274291992188,0,
00:00:05.516,-1.1444091796875E-05,-0.000703811645507813,0.00834274291992188,0,
00:00:05.52,-1.1444091796875E-05,-0.000698089599609375,0.00834846496582031,0,
00:00:05.524,-1.71661376953125E-05,-0.0006866455078125,0.00834846496582031,0,
00:00:05.528,-1.1444091796875E-05,-0.00066375732421875,0.00834846496582031,0,
00:00:05.532,-1.1444091796875E-05,-0.000658035278320313,0.00834846496582031,0,
00:00:05.536,-1.1444091796875E-05,-0.0006866455078125,0.00834846496582031,0,
00:00:05.54,-1.1444091796875E-05,-0.0006866455078125,0.00835418701171875,0,
00:00:05.544,-1.71661376953125E-05,-0.000680923461914063,0.00835418701171875,0,
00:00:05.548,-1.71661376953125E-05,-0.000680923461914063,0.00835418701171875,0,
00:00:05.552,-2.288818359375E-05,-0.000698089599609375,0.00835418701171875,0,
00:00:05.556,-2.86102294921875E-05,-0.000738143920898438,0.00835990905761719,0,
00:00:05.56,-3.4332275390625E-05,-0.000743865966796875,0.00835990905761719,0,
00:00:05.564,-3.4332275390625E-05,-0.000715255737304688,0.00835990905761719,0,
00:00:05.568,-1.1444091796875E-05,-0.000692367553710938,0.00835990905761719,0,
00:00:05.572,-5.7220458984375E-06,-0.00066375732421875,0.00835990905761719,0,
00:00:05.576,-1.1444091796875E-05,-0.000646591186523438,0.00835990905761719,0,
00:00:05.58,-1.71661376953125E-05,-0.00066375732421875,0.00836563110351563,0,
00:00:05.584,-1.71661376953125E-05,-0.000680923461914063,0.00836563110351563,0,
00:00:05.588,-2.288818359375E-05,-0.000703811645507813,0.00836563110351563,0,
00:00:05.592,-2.86102294921875E-05,-0.000703811645507813,0.00836563110351563,0,
00:00:05.596,-2.288818359375E-05,-0.000698089599609375,0.00836563110351563,0,
00:00:05.6,-1.1444091796875E-05,-0.000698089599609375,0.00836563110351563,0,
00:00:05.604,-1.1444091796875E-05,-0.000692367553710938,0.00836563110351563,0,
00:00:05.608,-1.1444091796875E-05,-0.000669479370117188,0.00837135314941406,0,
00:00:05.612,-1.1444091796875E-05,-0.00066375732421875,0.00837135314941406,0,
00:00:05.616,-1.71661376953125E-05,-0.000675201416015625,0.00837135314941406,0,
00:00:05.62,-2.288818359375E-05,-0.0006866455078125,0.00837135314941406,0,
00:00:05.624,-2.288818359375E-05,-0.000698089599609375,0.00837135314941406,0,
00:00:05.628,-2.288818359375E-05,-0.000698089599609375,0.0083770751953125,0,
00:00:05.632,-2.288818359375E-05,-0.000698089599609375,0.0083770751953125,0,
00:00:05.636,-2.86102294921875E-05,-0.000720977783203125,0.0083770751953125,0,
00:00:05.64,-2.86102294921875E-05,-0.000726699829101563,0.0083770751953125,0,
00:00:05.644,-2.86102294921875E-05,-0.000698089599609375,0.00838279724121094,0,
00:00:05.648,-2.288818359375E-05,-0.000675201416015625,0.0083770751953125,0,
00:00:05.652,-1.71661376953125E-05,-0.000675201416015625,0.0083770751953125,0,
00:00:05.656,-1.71661376953125E-05,-0.000680923461914063,0.00838279724121094,0,
00:00:05.66,-2.288818359375E-05,-0.000692367553710938,0.00838279724121094,0,
00:00:05.664,-2.86102294921875E-05,-0.000703811645507813,0.00838851928710938,0,
00:00:05.668,-3.4332275390625E-05,-0.000703811645507813,0.00838851928710938,0,
00:00:05.672,-2.86102294921875E-05,-0.000680923461914063,0.00838851928710938,0,
00:00:05.676,-2.288818359375E-05,-0.000658035278320313,0.00838851928710938,0,
00:00:05.68,-2.86102294921875E-05,-0.0006866455078125,0.00838851928710938,0,
00:00:05.684,-2.86102294921875E-05,-0.00066375732421875,0.00838851928710938,0,
00:00:05.688,-2.288818359375E-05,-0.000675201416015625,0.00838851928710938,0,
00:00:05.692,-2.288818359375E-05,-0.000692367553710938,0.00839424133300781,0,
00:00:05.696,-2.86102294921875E-05,-0.000692367553710938,0.00839424133300781,0,
00:00:05.7,-2.86102294921875E-05,-0.0006866455078125,0.00839424133300781,0,
00:00:05.704,-3.4332275390625E-05,-0.000698089599609375,0.00839424133300781,0,
00:00:05.708,-3.4332275390625E-05,-0.000703811645507813,0.00839996337890625,0,
00:00:05.712,-3.4332275390625E-05,-0.000698089599609375,0.00839424133300781,0,
00:00:05.716,-3.4332275390625E-05,-0.000703811645507813,0.00839424133300781,0,
00:00:05.72,-3.4332275390625E-05,-0.000720977783203125,0.00839424133300781,0,
00:00:05.724,-3.4332275390625E-05,-0.000732421875,0.00839996337890625,0,
00:00:05.728,-3.4332275390625E-05,-0.000703811645507813,0.00840568542480469,0,
00:00:05.732,-2.86102294921875E-05,-0.000669479370117188,0.00840568542480469,0,
00:00:05.736,-2.86102294921875E-05,-0.000669479370117188,0.00840568542480469,0,
00:00:05.74,-2.86102294921875E-05,-0.00066375732421875,0.00840568542480469,0,
00:00:05.744,-2.86102294921875E-05,-0.000675201416015625,0.00840568542480469,0,
00:00:05.748,-3.4332275390625E-05,-0.000715255737304688,0.00840568542480469,0,
00:00:05.752,-4.00543212890625E-05,-0.000726699829101563,0.00841140747070313,0,
00:00:05.756,-4.00543212890625E-05,-0.000703811645507813,0.00841140747070313,0,
00:00:05.76,-3.4332275390625E-05,-0.000675201416015625,0.00841140747070313,0,
00:00:05.764,-2.86102294921875E-05,-0.000658035278320313,0.00841140747070313,0,
00:00:05.768,-2.86102294921875E-05,-0.000658035278320313,0.00841140747070313,0,
00:00:05.772,-3.4332275390625E-05,-0.000680923461914063,0.00841140747070313,0,
00:00:05.776,-3.4332275390625E-05,-0.0006866455078125,0.00841712951660156,0,
00:00:05.78,-4.00543212890625E-05,-0.000692367553710938,0.00841712951660156,0,
00:00:05.784,-3.4332275390625E-05,-0.0006866455078125,0.00841712951660156,0,
00:00:05.788,-3.4332275390625E-05,-0.000698089599609375,0.00841712951660156,0,
00:00:05.792,-4.57763671875E-05,-0.00070953369140625,0.00841712951660156,0,
00:00:05.796,-4.57763671875E-05,-0.00070953369140625,0.0084228515625,0,
00:00:05.8,-4.57763671875E-05,-0.0006866455078125,0.0084228515625,0,
00:00:05.804,-3.4332275390625E-05,-0.00066375732421875,0.0084228515625,0,
00:00:05.808,-2.86102294921875E-05,-0.000669479370117188,0.0084228515625,0,
00:00:05.812,-4.00543212890625E-05,-0.00070953369140625,0.00842857360839844,0,
00:00:05.816,-5.7220458984375E-05,-0.000732421875,0.00842857360839844,0,
00:00:05.82,-5.14984130859375E-05,-0.00070953369140625,0.00842857360839844,0,
00:00:05.824,-4.00543212890625E-05,-0.000675201416015625,0.00842857360839844,0,
00:00:05.828,-2.86102294921875E-05,-0.00066375732421875,0.00842857360839844,0,
00:00:05.832,-2.86102294921875E-05,-0.000675201416015625,0.00842857360839844,0,
00:00:05.836,-2.86102294921875E-05,-0.00066375732421875,0.00842857360839844,0,
00:00:05.84,-3.4332275390625E-05,-0.000680923461914063,0.00842857360839844,0,
00:00:05.844,-4.57763671875E-05,-0.000703811645507813,0.00843429565429688,0,
00:00:05.848,-4.57763671875E-05,-0.000703811645507813,0.00843429565429688,0,
00:00:05.852,-3.4332275390625E-05,-0.000680923461914063,0.00843429565429688,0,
00:00:05.856,-3.4332275390625E-05,-0.00066375732421875,0.00843429565429688,0,
00:00:05.86,-4.00543212890625E-05,-0.000675201416015625,0.00844001770019531,0,
00:00:05.864,-4.00543212890625E-05,-0.0006866455078125,0.00843429565429688,0,
00:00:05.868,-3.4332275390625E-05,-0.000703811645507813,0.00843429565429688,0,
00:00:05.872,-3.4332275390625E-05,-0.000692367553710938,0.00843429565429688,0,
00:00:05.876,-3.4332275390625E-05,-0.000675201416015625,0.00843429565429688,0,
00:00:05.88,-3.4332275390625E-05,-0.000675201416015625,0.00843429565429688,0,
00:00:05.884,-3.4332275390625E-05,-0.0006866455078125,0.00844001770019531,0,
00:00:05.888,-3.4332275390625E-05,-0.000715255737304688,0.00844001770019531,0,
00:00:05.892,-4.00543212890625E-05,-0.00070953369140625,0.00844001770019531,0,
00:00:05.896,-4.00543212890625E-05,-0.000680923461914063,0.00844001770019531,0,
00:00:05.9,-3.4332275390625E-05,-0.0006866455078125,0.00844573974609375,0,
00:00:05.904,-4.00543212890625E-05,-0.000698089599609375,0.00844573974609375,0,
00:00:05.908,-4.57763671875E-05,-0.000703811645507813,0.00844573974609375,0,
00:00:05.912,-3.4332275390625E-05,-0.000703811645507813,0.00844573974609375,0,
00:00:05.916,-2.86102294921875E-05,-0.00066375732421875,0.00844573974609375,0,
00:00:05.92,-2.288818359375E-05,-0.000680923461914063,0.00844573974609375,0,
00:00:05.924,-2.86102294921875E-05,-0.000692367553710938,0.00844573974609375,0,
00:00:05.928,-3.4332275390625E-05,-0.000698089599609375,0.00844573974609375,0,
00:00:05.932,-3.4332275390625E-05,-0.000698089599609375,0.00845146179199219,0,
00:00:05.936,-2.86102294921875E-05,-0.000692367553710938,0.00845146179199219,0,
00:00:05.94,-2.86102294921875E-05,-0.000675201416015625,0.00845146179199219,0,
00:00:05.944,-2.86102294921875E-05,-0.00066375732421875,0.00845718383789063,0,
00:00:05.948,-3.4332275390625E-05,-0.000692367553710938,0.00845718383789063,0,
00:00:05.952,-3.4332275390625E-05,-0.000720977783203125,0.00845718383789063,0,
00:00:05.956,-3.4332275390625E-05,-0.00070953369140625,0.00845718383789063,0,
00:00:05.96,-3.4332275390625E-05,-0.000680923461914063,0.00845718383789063,0,
00:00:05.964,-3.4332275390625E-05,-0.000669479370117188,0.00845718383789063,0,
00:00:05.968,-3.4332275390625E-05,-0.000680923461914063,0.00845718383789063,0,
00:00:05.972,-3.4332275390625E-05,-0.000692367553710938,0.00845718383789063,0,
00:00:05.976,-3.4332275390625E-05,-0.0006866455078125,0.00846290588378906,0,
00:00:05.98,-4.00543212890625E-05,-0.000698089599609375,0.00846290588378906,0,
00:00:05.984,-4.57763671875E-05,-0.000698089599609375,0.00846290588378906,0,
00:00:05.988,-4.00543212890625E-05,-0.000698089599609375,0.00846290588378906,0,
00:00:05.992,-3.4332275390625E-05,-0.000698089599609375,0.00846290588378906,0,
00:00:05.996,-2.86102294921875E-05,-0.0006866455078125,0.00846290588378906,0,
00:00:06,-2.86102294921875E-05,-0.000675201416015625,0.00846290588378906,0,
00:00:06.004,-3.4332275390625E-05,-0.000669479370117188,0.00846290588378906,0,
00:00:06.008,-3.4332275390625E-05,-0.000675201416015625,0.00846290588378906,0,
00:00:06.012,-4.00543212890625E-05,-0.0006866455078125,0.00846290588378906,0,
00:00:06.016,-4.57763671875E-05,-0.000703811645507813,0.0084686279296875,0,
00:00:06.02,-5.14984130859375E-05,-0.000715255737304688,0.0084686279296875,0,
00:00:06.024,-4.57763671875E-05,-0.000715255737304688,0.0084686279296875,0,
00:00:06.028,-4.00543212890625E-05,-0.000703811645507813,0.0084686279296875,0,
00:00:06.032,-3.4332275390625E-05,-0.000675201416015625,0.0084686279296875,0,
00:00:06.036,-3.4332275390625E-05,-0.0006866455078125,0.0084686279296875,0,
00:00:06.04,-3.4332275390625E-05,-0.00070953369140625,0.00847434997558594,0,
00:00:06.044,-4.00543212890625E-05,-0.000715255737304688,0.00847434997558594,0,
00:00:06.048,-4.00543212890625E-05,-0.000703811645507813,0.00847434997558594,0,
00:00:06.052,-4.57763671875E-05,-0.0006866455078125,0.00847434997558594,0,
00:00:06.056,-3.4332275390625E-05,-0.000669479370117188,0.00847434997558594,0,
00:00:06.06,-3.4332275390625E-05,-0.000675201416015625,0.00847434997558594,0,
00:00:06.064,-4.00543212890625E-05,-0.000692367553710938,0.00847434997558594,0,
00:00:06.068,-4.00543212890625E-05,-0.000703811645507813,0.00848007202148438,0,
00:00:06.072,-4.57763671875E-05,-0.0006866455078125,0.00848007202148438,0,
00:00:06.076,-4.57763671875E-05,-0.000692367553710938,0.00848007202148438,0,
00:00:06.08,-3.4332275390625E-05,-0.000680923461914063,0.00848007202148438,0,
00:00:06.084,-2.86102294921875E-05,-0.0006866455078125,0.00848007202148438,0,
00:00:06.088,-3.4332275390625E-05,-0.000680923461914063,0.00848007202148438,0,
00:00:06.092,-3.4332275390625E-05,-0.000680923461914063,0.00848007202148438,0,
00:00:06.096,-4.00543212890625E-05,-0.000692367553710938,0.00848007202148438,0,
00:00:06.1,-4.00543212890625E-05,-0.000703811645507813,0.00848579406738281,0,
00:00:06.104,-4.00543212890625E-05,-0.000698089599609375,0.00848579406738281,0,
00:00:06.108,-4.57763671875E-05,-0.000698089599609375,0.00848579406738281,0,
00:00:06.112,-4.57763671875E-05,-0.000703811645507813,0.00848579406738281,0,
00:00:06.116,-4.57763671875E-05,-0.000703811645507813,0.00848579406738281,0,
00:00:06.12,-4.57763671875E-05,-0.000703811645507813,0.00849151611328125,0,
00:00:06.124,-4.57763671875E-05,-0.000720977783203125,0.00849151611328125,0,
00:00:06.128,-4.57763671875E-05,-0.000720977783203125,0.00849151611328125,0,
00:00:06.132,-4.00543212890625E-05,-0.000698089599609375,0.00849151611328125,0,
00:00:06.136,-4.57763671875E-05,-0.0006866455078125,0.00849151611328125,0,
00:00:06.14,-5.14984130859375E-05,-0.000692367553710938,0.00849151611328125,0,
00:00:06.144,-4.57763671875E-05,-0.000680923461914063,0.00849723815917969,0,
00:00:06.148,-3.4332275390625E-05,-0.000669479370117188,0.00849723815917969,0,
00:00:06.152,-4.00543212890625E-05,-0.000680923461914063,0.00849723815917969,0,
00:00:06.156,-4.57763671875E-05,-0.0006866455078125,0.00850296020507813,0,
00:00:06.16,-4.00543212890625E-05,-0.000675201416015625,0.00850296020507813,0,
00:00:06.164,-3.4332275390625E-05,-0.000680923461914063,0.00849723815917969,0,
00:00:06.168,-2.86102294921875E-05,-0.0006866455078125,0.00849723815917969,0,
00:00:06.172,-3.4332275390625E-05,-0.000680923461914063,0.00849723815917969,0,
00:00:06.176,-3.4332275390625E-05,-0.0006866455078125,0.00849723815917969,0,
00:00:06.18,-4.00543212890625E-05,-0.000680923461914063,0.00850296020507813,0,
00:00:06.184,-4.00543212890625E-05,-0.000680923461914063,0.00850296020507813,0,
00:00:06.188,-4.00543212890625E-05,-0.0006866455078125,0.00850296020507813,0,
00:00:06.192,-4.00543212890625E-05,-0.0006866455078125,0.00850296020507813,0,
00:00:06.196,-4.00543212890625E-05,-0.000692367553710938,0.00850296020507813,0,
00:00:06.2,-4.57763671875E-05,-0.000692367553710938,0.00850868225097656,0,
00:00:06.204,-4.57763671875E-05,-0.000692367553710938,0.00850868225097656,0,
00:00:06.208,-4.00543212890625E-05,-0.00070953369140625,0.00850868225097656,0,
00:00:06.212,-4.00543212890625E-05,-0.000726699829101563,0.00850296020507813,0,
00:00:06.216,-5.14984130859375E-05,-0.000720977783203125,0.00850868225097656,0,
00:00:06.22,-5.14984130859375E-05,-0.000703811645507813,0.008514404296875,0,
00:00:06.224,-4.00543212890625E-05,-0.000680923461914063,0.008514404296875,0,
00:00:06.228,-4.00543212890625E-05,-0.000675201416015625,0.008514404296875,0,
00:00:06.232,-4.57763671875E-05,-0.000698089599609375,0.008514404296875,0,
00:00:06.236,-5.7220458984375E-05,-0.000715255737304688,0.00852012634277344,0,
