Elapsed Time,EMG1,EMG2,EMG3,BioRadio Event,
00:00:00,0.00016021728515625,-0.00043487548828125,-0.00716400146484375,0,
00:00:00.004,0.000143051147460938,-0.000440597534179688,-0.00714683532714844,0,
00:00:00.008,0.000143051147460938,-0.00043487548828125,-0.00714683532714844,0,
00:00:00.012,9.72747802734375E-05,-0.00043487548828125,-0.00715255737304688,0,
00:00:00.016,9.72747802734375E-05,-0.000429153442382813,-0.00715255737304688,0,
00:00:00.02,0.00011444091796875,-0.000423431396484375,-0.00712394714355469,0,
00:00:00.024,0.000120162963867188,-0.000417709350585938,-0.00713539123535156,0,
00:00:00.028,9.1552734375E-05,-0.000429153442382813,-0.00714111328125,0,
00:00:00.032,0.000148773193359375,-0.00043487548828125,-0.00714111328125,0,
00:00:00.036,0.000131607055664063,-0.000423431396484375,-0.00715255737304688,0,
00:00:00.04,0.000102996826171875,-0.000423431396484375,-0.00716400146484375,0,
00:00:00.044,0.000125885009765625,-0.000423431396484375,-0.00712966918945313,0,
00:00:00.048,0.000131607055664063,-0.000429153442382813,-0.00711822509765625,0,
00:00:00.052,0.000143051147460938,-0.000423431396484375,-0.00714111328125,0,
00:00:00.056,0.000120162963867188,-0.000429153442382813,-0.00714111328125,0,
00:00:00.06,0.00011444091796875,-0.000423431396484375,-0.00716972351074219,0,
00:00:00.064,0.00011444091796875,-0.000429153442382813,-0.00714111328125,0,
00:00:00.068,0.000165939331054688,-0.000423431396484375,-0.00715827941894531,0,
00:00:00.072,0.000148773193359375,-0.00043487548828125,-0.00715827941894531,0,
00:00:00.076,0.000125885009765625,-0.00043487548828125,-0.00714111328125,0,
00:00:00.08,0.000125885009765625,-0.00043487548828125,-0.00715827941894531,0,
00:00:00.084,8.58306884765625E-05,-0.00043487548828125,-0.00712966918945313,0,
00:00:00.088,8.0108642578125E-05,-0.000440597534179688,-0.00712966918945313,0,
00:00:00.092,0.000148773193359375,-0.00043487548828125,-0.00715255737304688,0,
00:00:00.096,9.72747802734375E-05,-0.000440597534179688,-0.00716400146484375,0,
00:00:00.1,0.000108718872070313,-0.000440597534179688,-0.00719261169433594,0,
00:00:00.104,0.000131607055664063,-0.000446319580078125,-0.00718116760253906,0,
00:00:00.108,7.43865966796875E-05,-0.000440597534179688,-0.00712394714355469,0,
00:00:00.112,9.72747802734375E-05,-0.000429153442382813,-0.00715255737304688,0,
00:00:00.116,7.43865966796875E-05,-0.000440597534179688,-0.00715255737304688,0,
00:00:00.12,0.000120162963867188,-0.000440597534179688,-0.00716400146484375,0,
00:00:00.124,0.000102996826171875,-0.000440597534179688,-0.00716972351074219,0,
00:00:00.128,0.000125885009765625,-0.000452041625976563,-0.00717544555664063,0,
00:00:00.132,0.000143051147460938,-0.00043487548828125,-0.00713539123535156,0,
00:00:00.136,0.000120162963867188,-0.000440597534179688,-0.00716400146484375,0,
00:00:00.14,9.72747802734375E-05,-0.00043487548828125,-0.00715255737304688,0,
00:00:00.144,0.000131607055664063,-0.000417709350585938,-0.00714111328125,0,
00:00:00.148,0.000108718872070313,-0.000429153442382813,-0.00715255737304688,0,
00:00:00.152,6.866455078125E-05,-0.000423431396484375,-0.00714683532714844,0,
00:00:00.156,0.000108718872070313,-0.000423431396484375,-0.00719261169433594,0,
00:00:00.16,0.000120162963867188,-0.00043487548828125,-0.00713539123535156,0,
00:00:00.164,8.58306884765625E-05,-0.00043487548828125,-0.00714683532714844,0,
00:00:00.168,6.866455078125E-05,-0.000440597534179688,-0.00714111328125,0,
00:00:00.172,8.58306884765625E-05,-0.000440597534179688,-0.00713539123535156,0,
00:00:00.176,0.0001373291015625,-0.00043487548828125,-0.00716400146484375,0,
00:00:00.18,0.00011444091796875,-0.000429153442382813,-0.00714683532714844,0,
00:00:00.184,0.000125885009765625,-0.000417709350585938,-0.00717544555664063,0,
00:00:00.188,0.00011444091796875,-0.000423431396484375,-0.00715827941894531,0,
00:00:00.192,4.00543212890625E-05,-0.00043487548828125,-0.00713539123535156,0,
00:00:00.196,9.1552734375E-05,-0.000440597534179688,-0.00713539123535156,0,
00:00:00.2,0.000154495239257813,-0.00043487548828125,-0.00716972351074219,0,
00:00:00.204,0.000108718872070313,-0.000440597534179688,-0.00715255737304688,0,
00:00:00.208,8.0108642578125E-05,-0.000440597534179688,-0.00715255737304688,0,
00:00:00.212,8.58306884765625E-05,-0.000446319580078125,-0.00712966918945313,0,
00:00:00.216,0.00011444091796875,-0.00043487548828125,-0.00712966918945313,0,
00:00:00.22,5.7220458984375E-05,-0.000446319580078125,-0.00716400146484375,0,
00:00:00.224,0.000125885009765625,-0.000446319580078125,-0.00715255737304688,0,
00:00:00.228,0.00011444091796875,-0.000440597534179688,-0.00715255737304688,0,
00:00:00.232,9.1552734375E-05,-0.000446319580078125,-0.00714683532714844,0,
00:00:00.236,6.29425048828125E-05,-0.000446319580078125,-0.00712966918945313,0,
00:00:00.24,5.14984130859375E-05,-0.000440597534179688,-0.00716400146484375,0,
00:00:00.244,0.0001373291015625,-0.00043487548828125,-0.00714683532714844,0,
00:00:00.248,0.00011444091796875,-0.00043487548828125,-0.00711822509765625,0,
00:00:00.252,0.000108718872070313,-0.00043487548828125,-0.00712966918945313,0,
00:00:00.256,9.1552734375E-05,-0.00043487548828125,-0.00712394714355469,0,
00:00:00.26,9.72747802734375E-05,-0.00043487548828125,-0.00711822509765625,0,
00:00:00.264,9.72747802734375E-05,-0.000429153442382813,-0.00714683532714844,0,
00:00:00.268,0.000108718872070313,-0.000429153442382813,-0.00712966918945313,0,
00:00:00.272,8.0108642578125E-05,-0.00043487548828125,-0.00715255737304688,0,
00:00:00.276,6.29425048828125E-05,-0.000440597534179688,-0.00712966918945313,0,
00:00:00.28,4.57763671875E-05,-0.00043487548828125,-0.00710105895996094,0,
00:00:00.284,5.7220458984375E-05,-0.000452041625976563,-0.00712966918945313,0,
00:00:00.288,0.0001373291015625,-0.00043487548828125,-0.00711822509765625,0,
00:00:00.292,0.000120162963867188,-0.000423431396484375,-0.00712394714355469,0,
00:00:00.296,9.72747802734375E-05,-0.00043487548828125,-0.00713539123535156,0,
00:00:00.3,8.0108642578125E-05,-0.000440597534179688,-0.00708389282226563,0,
00:00:00.304,6.29425048828125E-05,-0.000429153442382813,-0.00710105895996094,0,
00:00:00.308,0.000108718872070313,-0.000423431396484375,-0.00711822509765625,0,
00:00:00.312,0.00011444091796875,-0.000429153442382813,-0.00710105895996094,0,
00:00:00.316,0.000102996826171875,-0.000429153442382813,-0.0070953369140625,0,
00:00:00.32,0.000102996826171875,-0.000429153442382813,-0.00711822509765625,0,
00:00:00.324,6.29425048828125E-05,-0.000429153442382813,-0.00710678100585938,0,
00:00:00.328,8.58306884765625E-05,-0.000423431396484375,-0.00708961486816406,0,
00:00:00.332,8.0108642578125E-05,-0.000423431396484375,-0.0070953369140625,0,
00:00:00.336,8.0108642578125E-05,-0.000429153442382813,-0.00708389282226563,0,
00:00:00.34,6.866455078125E-05,-0.0004119873046875,-0.00706672668457031,0,
00:00:00.344,5.14984130859375E-05,-0.000423431396484375,-0.00707817077636719,0,
00:00:00.348,0.000108718872070313,-0.000423431396484375,-0.00710678100585938,0,
00:00:00.352,4.57763671875E-05,-0.000417709350585938,-0.00710105895996094,0,
00:00:00.356,3.4332275390625E-05,-0.000423431396484375,-0.00708389282226563,0,
00:00:00.36,5.7220458984375E-06,-0.000417709350585938,-0.0070953369140625,0,
00:00:00.364,5.14984130859375E-05,-0.000423431396484375,-0.00707817077636719,0,
00:00:00.368,8.0108642578125E-05,-0.000417709350585938,-0.007049560546875,0,
00:00:00.372,0.000108718872070313,-0.000423431396484375,-0.00707817077636719,0,
00:00:00.376,9.1552734375E-05,-0.0004119873046875,-0.00707817077636719,0,
00:00:00.38,8.58306884765625E-05,-0.0004119873046875,-0.00707817077636719,0,
00:00:00.384,8.58306884765625E-05,-0.000423431396484375,-0.00706672668457031,0,
00:00:00.388,7.43865966796875E-05,-0.000417709350585938,-0.00705528259277344,0,
00:00:00.392,8.0108642578125E-05,-0.000417709350585938,-0.00702667236328125,0,
00:00:00.396,8.58306884765625E-05,-0.000417709350585938,-0.00706672668457031,0,
00:00:00.4,7.43865966796875E-05,-0.0004119873046875,-0.00706672668457031,0,
00:00:00.404,5.7220458984375E-05,-0.000417709350585938,-0.00706672668457031,0,
00:00:00.408,5.7220458984375E-05,-0.000429153442382813,-0.007049560546875,0,
00:00:00.412,8.0108642578125E-05,-0.000423431396484375,-0.00706672668457031,0,
00:00:00.416,6.29425048828125E-05,-0.000417709350585938,-0.00705528259277344,0,
00:00:00.42,9.1552734375E-05,-0.000417709350585938,-0.00704383850097656,0,
00:00:00.424,9.72747802734375E-05,-0.000417709350585938,-0.00702667236328125,0,
00:00:00.428,8.0108642578125E-05,-0.0004119873046875,-0.00703239440917969,0,
00:00:00.432,5.7220458984375E-05,-0.000417709350585938,-0.00706100463867188,0,
00:00:00.436,8.0108642578125E-05,-0.000417709350585938,-0.00706100463867188,0,
00:00:00.44,4.00543212890625E-05,-0.0004119873046875,-0.00703239440917969,0,
00:00:00.444,5.7220458984375E-05,-0.000406265258789063,-0.00703811645507813,0,
00:00:00.448,3.4332275390625E-05,-0.0004119873046875,-0.00702667236328125,0,
00:00:00.452,-4.00543212890625E-05,-0.000406265258789063,-0.00701522827148438,0,
00:00:00.456,9.1552734375E-05,-0.000394821166992188,-0.00702667236328125,0,
00:00:00.46,0.000148773193359375,-0.000383377075195313,-0.00702667236328125,0,
00:00:00.464,7.43865966796875E-05,-0.000394821166992188,-0.00706672668457031,0,
00:00:00.468,1.71661376953125E-05,-0.000400543212890625,-0.0070037841796875,0,
00:00:00.472,4.57763671875E-05,-0.0004119873046875,-0.00698661804199219,0,
00:00:00.476,0.000131607055664063,-0.000406265258789063,-0.00700950622558594,0,
00:00:00.48,8.58306884765625E-05,-0.000394821166992188,-0.00701522827148438,0,
00:00:00.484,5.14984130859375E-05,-0.000400543212890625,-0.00697517395019531,0,
00:00:00.488,8.0108642578125E-05,-0.000400543212890625,-0.00698661804199219,0,
00:00:00.492,8.0108642578125E-05,-0.000394821166992188,-0.00700950622558594,0,
00:00:00.496,5.7220458984375E-05,-0.000394821166992188,-0.00700950622558594,0,
00:00:00.5,5.7220458984375E-05,-0.00038909912109375,-0.0070037841796875,0,
00:00:00.504,5.7220458984375E-05,-0.00038909912109375,-0.00701522827148438,0,
00:00:00.508,7.43865966796875E-05,-0.00038909912109375,-0.00701522827148438,0,
00:00:00.512,8.58306884765625E-05,-0.000383377075195313,-0.00696372985839844,0,
00:00:00.516,6.866455078125E-05,-0.000383377075195313,-0.00695228576660156,0,
00:00:00.52,6.866455078125E-05,-0.000383377075195313,-0.00697517395019531,0,
00:00:00.524,6.29425048828125E-05,-0.000383377075195313,-0.00697517395019531,0,
00:00:00.528,2.86102294921875E-05,-0.000383377075195313,-0.0069580078125,0,
00:00:00.532,7.43865966796875E-05,-0.000383377075195313,-0.00696945190429688,0,
00:00:00.536,6.29425048828125E-05,-0.000383377075195313,-0.0069580078125,0,
00:00:00.54,4.57763671875E-05,-0.000377655029296875,-0.00696372985839844,0,
00:00:00.544,5.7220458984375E-05,-0.0003662109375,-0.00699806213378906,0,
00:00:00.548,4.57763671875E-05,-0.000377655029296875,-0.00697517395019531,0,
00:00:00.552,5.14984130859375E-05,-0.000371932983398438,-0.00694084167480469,0,
00:00:00.556,9.72747802734375E-05,-0.000371932983398438,-0.00692939758300781,0,
00:00:00.56,8.58306884765625E-05,-0.0003662109375,-0.00694656372070313,0,
00:00:00.564,1.71661376953125E-05,-0.000377655029296875,-0.00692939758300781,0,
00:00:00.568,5.7220458984375E-05,-0.000371932983398438,-0.00692939758300781,0,
00:00:00.572,8.58306884765625E-05,-0.000360488891601563,-0.0069580078125,0,
00:00:00.576,7.43865966796875E-05,-0.000360488891601563,-0.0069580078125,0,
00:00:00.58,5.7220458984375E-05,-0.000360488891601563,-0.00698089599609375,0,
00:00:00.584,6.866455078125E-05,-0.000360488891601563,-0.00692367553710938,0,
00:00:00.588,7.43865966796875E-05,-0.0003662109375,-0.00688934326171875,0,
00:00:00.592,6.866455078125E-05,-0.0003662109375,-0.00688934326171875,0,
00:00:00.596,7.43865966796875E-05,-0.0003662109375,-0.00690078735351563,0,
00:00:00.6,5.7220458984375E-05,-0.000371932983398438,-0.00690650939941406,0,
00:00:00.604,4.00543212890625E-05,-0.000354766845703125,-0.00688934326171875,0,
00:00:00.608,4.00543212890625E-05,-0.000349044799804688,-0.00690078735351563,0,
00:00:00.612,4.00543212890625E-05,-0.000360488891601563,-0.00690078735351563,0,
00:00:00.616,-5.7220458984375E-06,-0.0003662109375,-0.0069122314453125,0,
00:00:00.62,3.4332275390625E-05,-0.000354766845703125,-0.00689506530761719,0,
00:00:00.624,6.29425048828125E-05,-0.000360488891601563,-0.00688934326171875,0,
00:00:00.628,8.0108642578125E-05,-0.000354766845703125,-0.00686073303222656,0,
00:00:00.632,7.43865966796875E-05,-0.000360488891601563,-0.00684928894042969,0,
00:00:00.636,7.43865966796875E-05,-0.00034332275390625,-0.006866455078125,0,
00:00:00.64,3.4332275390625E-05,-0.00034332275390625,-0.00688362121582031,0,
00:00:00.644,4.57763671875E-05,-0.00034332275390625,-0.00687789916992188,0,
00:00:00.648,7.43865966796875E-05,-0.000354766845703125,-0.00684928894042969,0,
00:00:00.652,4.57763671875E-05,-0.000349044799804688,-0.00683212280273438,0,
00:00:00.656,8.0108642578125E-05,-0.000354766845703125,-0.00684928894042969,0,
00:00:00.66,7.43865966796875E-05,-0.000349044799804688,-0.00685501098632813,0,
00:00:00.664,5.7220458984375E-05,-0.000354766845703125,-0.00683212280273438,0,
00:00:00.668,7.43865966796875E-05,-0.000354766845703125,-0.0068206787109375,0,
00:00:00.672,6.866455078125E-05,-0.000354766845703125,-0.00681495666503906,0,
00:00:00.676,7.43865966796875E-05,-0.000349044799804688,-0.0068206787109375,0,
00:00:00.68,8.58306884765625E-05,-0.00034332275390625,-0.00681495666503906,0,
00:00:00.684,6.29425048828125E-05,-0.00034332275390625,-0.00680923461914063,0,
00:00:00.688,5.7220458984375E-05,-0.000349044799804688,-0.00680923461914063,0,
00:00:00.692,4.57763671875E-05,-0.00034332275390625,-0.00680351257324219,0,
00:00:00.696,2.288818359375E-05,-0.00034332275390625,-0.00680923461914063,0,
00:00:00.7,2.86102294921875E-05,-0.000349044799804688,-0.00680923461914063,0,
00:00:00.704,5.14984130859375E-05,-0.000349044799804688,-0.00678062438964844,0,
00:00:00.708,4.00543212890625E-05,-0.000349044799804688,-0.00675201416015625,0,
00:00:00.712,8.58306884765625E-05,-0.000337600708007813,-0.00678634643554688,0,
00:00:00.716,5.14984130859375E-05,-0.000349044799804688,-0.00679779052734375,0,
00:00:00.72,8.0108642578125E-05,-0.00034332275390625,-0.00678634643554688,0,
00:00:00.724,2.288818359375E-05,-0.000337600708007813,-0.00680351257324219,0,
00:00:00.728,6.29425048828125E-05,-0.000337600708007813,-0.00675201416015625,0,
00:00:00.732,7.43865966796875E-05,-0.000337600708007813,-0.00673484802246094,0,
00:00:00.736,6.29425048828125E-05,-0.000331878662109375,-0.00674057006835938,0,
00:00:00.74,6.29425048828125E-05,-0.000331878662109375,-0.00674057006835938,0,
00:00:00.744,4.00543212890625E-05,-0.000326156616210938,-0.00674629211425781,0,
00:00:00.748,9.1552734375E-05,-0.0003204345703125,-0.00673484802246094,0,
00:00:00.752,8.0108642578125E-05,-0.0003204345703125,-0.00674629211425781,0,
00:00:00.756,5.7220458984375E-05,-0.000331878662109375,-0.00675773620605469,0,
00:00:00.76,5.14984130859375E-05,-0.000331878662109375,-0.00671195983886719,0,
00:00:00.764,5.7220458984375E-05,-0.000331878662109375,-0.00671768188476563,0,
00:00:00.768,5.14984130859375E-05,-0.000337600708007813,-0.00670623779296875,0,
00:00:00.772,5.14984130859375E-05,-0.000337600708007813,-0.00672340393066406,0,
00:00:00.776,2.288818359375E-05,-0.000331878662109375,-0.00671768188476563,0,
00:00:00.78,7.43865966796875E-05,-0.000326156616210938,-0.00669479370117188,0,
00:00:00.784,4.00543212890625E-05,-0.000326156616210938,-0.00669479370117188,0,
00:00:00.788,3.4332275390625E-05,-0.000337600708007813,-0.00668907165527344,0,
00:00:00.792,6.29425048828125E-05,-0.000326156616210938,-0.00669479370117188,0,
00:00:00.796,5.7220458984375E-05,-0.000326156616210938,-0.00669479370117188,0,
00:00:00.8,-5.7220458984375E-06,-0.000331878662109375,-0.00668907165527344,0,
00:00:00.804,5.14984130859375E-05,-0.0003204345703125,-0.00667762756347656,0,
00:00:00.808,6.866455078125E-05,-0.0003204345703125,-0.00666046142578125,0,
00:00:00.812,1.71661376953125E-05,-0.000326156616210938,-0.00664329528808594,0,
00:00:00.816,5.7220458984375E-05,-0.000331878662109375,-0.00664329528808594,0,
00:00:00.82,4.00543212890625E-05,-0.000337600708007813,-0.00661468505859375,0,
00:00:00.824,5.14984130859375E-05,-0.0003204345703125,-0.00666046142578125,0,
00:00:00.828,8.58306884765625E-05,-0.0003204345703125,-0.00666618347167969,0,
00:00:00.832,5.7220458984375E-05,-0.0003204345703125,-0.0066375732421875,0,
00:00:00.836,6.866455078125E-05,-0.000314712524414063,-0.00662612915039063,0,
00:00:00.84,6.866455078125E-05,-0.000308990478515625,-0.00663185119628906,0,
00:00:00.844,4.57763671875E-05,-0.0003204345703125,-0.00662040710449219,0,
00:00:00.848,5.14984130859375E-05,-0.000326156616210938,-0.00658035278320313,0,
00:00:00.852,4.00543212890625E-05,-0.0003204345703125,-0.00656890869140625,0,
00:00:00.856,1.71661376953125E-05,-0.000314712524414063,-0.00660896301269531,0,
00:00:00.86,2.86102294921875E-05,-0.000314712524414063,-0.00658607482910156,0,
00:00:00.864,6.29425048828125E-05,-0.0003204345703125,-0.00657463073730469,0,
00:00:00.868,-2.288818359375E-05,-0.0003204345703125,-0.0065460205078125,0,
00:00:00.872,-3.4332275390625E-05,-0.0003204345703125,-0.00655746459960938,0,
00:00:00.876,9.72747802734375E-05,-0.000326156616210938,-0.006591796875,0,
00:00:00.88,5.14984130859375E-05,-0.000308990478515625,-0.00660896301269531,0,
00:00:00.884,4.57763671875E-05,-0.000308990478515625,-0.00659751892089844,0,
00:00:00.888,5.14984130859375E-05,-0.0003204345703125,-0.00655746459960938,0,
00:00:00.892,2.86102294921875E-05,-0.000326156616210938,-0.00656890869140625,0,
00:00:00.896,8.58306884765625E-05,-0.0003204345703125,-0.00655746459960938,0,
00:00:00.9,2.288818359375E-05,-0.0003204345703125,-0.0065460205078125,0,
00:00:00.904,-1.1444091796875E-05,-0.0003204345703125,-0.00653457641601563,0,
00:00:00.908,0.000108718872070313,-0.000314712524414063,-0.00657463073730469,0,
00:00:00.912,9.1552734375E-05,-0.0003204345703125,-0.0065460205078125,0,
00:00:00.916,8.0108642578125E-05,-0.000308990478515625,-0.00653457641601563,0,
00:00:00.92,6.29425048828125E-05,-0.000308990478515625,-0.00652313232421875,0,
00:00:00.924,4.00543212890625E-05,-0.000314712524414063,-0.00651741027832031,0,
00:00:00.928,5.14984130859375E-05,-0.000314712524414063,-0.00652885437011719,0,
00:00:00.932,6.29425048828125E-05,-0.000308990478515625,-0.00650596618652344,0,
00:00:00.936,4.57763671875E-05,-0.000308990478515625,-0.00652313232421875,0,
00:00:00.94,4.00543212890625E-05,-0.000308990478515625,-0.00652313232421875,0,
00:00:00.944,8.58306884765625E-05,-0.00029754638671875,-0.00650596618652344,0,
00:00:00.948,5.7220458984375E-05,-0.000308990478515625,-0.00647163391113281,0,
00:00:00.952,3.4332275390625E-05,-0.000308990478515625,-0.00648307800292969,0,
00:00:00.956,9.1552734375E-05,-0.00029754638671875,-0.00652885437011719,0,
00:00:00.96,9.72747802734375E-05,-0.000308990478515625,-0.00649452209472656,0,
00:00:00.964,4.00543212890625E-05,-0.000303268432617188,-0.00651168823242188,0,
00:00:00.968,4.00543212890625E-05,-0.000308990478515625,-0.00646018981933594,0,
00:00:00.972,5.7220458984375E-05,-0.000308990478515625,-0.00641441345214844,0,
00:00:00.976,6.29425048828125E-05,-0.000314712524414063,-0.00643157958984375,0,
00:00:00.98,8.0108642578125E-05,-0.00029754638671875,-0.00647735595703125,0,
00:00:00.984,4.57763671875E-05,-0.00029754638671875,-0.0064544677734375,0,
00:00:00.988,1.1444091796875E-05,-0.000308990478515625,-0.00641441345214844,0,
00:00:00.992,6.29425048828125E-05,-0.000303268432617188,-0.00643157958984375,0,
00:00:00.996,0,-0.000291824340820313,-0.00641441345214844,0,
00:00:01,8.0108642578125E-05,-0.000291824340820313,-0.00641441345214844,0,
00:00:01.004,6.29425048828125E-05,-0.00029754638671875,-0.00643157958984375,0,
00:00:01.008,8.0108642578125E-05,-0.00029754638671875,-0.00642585754394531,0,
00:00:01.012,6.29425048828125E-05,-0.000303268432617188,-0.00642013549804688,0,
00:00:01.016,3.4332275390625E-05,-0.00029754638671875,-0.00640296936035156,0,
00:00:01.02,5.14984130859375E-05,-0.000303268432617188,-0.00640296936035156,0,
00:00:01.024,6.29425048828125E-05,-0.000303268432617188,-0.00640869140625,0,
00:00:01.028,6.29425048828125E-05,-0.00029754638671875,-0.00638580322265625,0,
00:00:01.032,6.866455078125E-05,-0.00029754638671875,-0.00638008117675781,0,
00:00:01.036,4.57763671875E-05,-0.00029754638671875,-0.00638008117675781,0,
00:00:01.04,4.00543212890625E-05,-0.00029754638671875,-0.00636863708496094,0,
00:00:01.044,5.7220458984375E-05,-0.00029754638671875,-0.00636863708496094,0,
00:00:01.048,3.4332275390625E-05,-0.00029754638671875,-0.00635719299316406,0,
00:00:01.052,3.4332275390625E-05,-0.000291824340820313,-0.00635719299316406,0,
00:00:01.056,8.0108642578125E-05,-0.000291824340820313,-0.0063629150390625,0,
00:00:01.06,4.00543212890625E-05,-0.00029754638671875,-0.00637435913085938,0,
00:00:01.064,6.29425048828125E-05,-0.000291824340820313,-0.00632858276367188,0,
00:00:01.068,6.29425048828125E-05,-0.000286102294921875,-0.006317138671875,0,
00:00:01.072,2.288818359375E-05,-0.000286102294921875,-0.00630569458007813,0,
00:00:01.076,5.7220458984375E-05,-0.000280380249023438,-0.00633430480957031,0,
00:00:01.08,3.4332275390625E-05,-0.00029754638671875,-0.00632286071777344,0,
00:00:01.084,2.288818359375E-05,-0.000291824340820313,-0.00634002685546875,0,
00:00:01.088,6.866455078125E-05,-0.000286102294921875,-0.0063629150390625,0,
00:00:01.092,6.866455078125E-05,-0.000291824340820313,-0.00632858276367188,0,
00:00:01.096,3.4332275390625E-05,-0.000291824340820313,-0.00625991821289063,0,
00:00:01.1,4.57763671875E-05,-0.000286102294921875,-0.00629425048828125,0,
00:00:01.104,8.58306884765625E-05,-0.000286102294921875,-0.00626564025878906,0,
00:00:01.108,5.7220458984375E-05,-0.000286102294921875,-0.00625991821289063,0,
00:00:01.112,4.57763671875E-05,-0.000286102294921875,-0.00627708435058594,0,
00:00:01.116,5.7220458984375E-05,-0.000291824340820313,-0.00628280639648438,0,
00:00:01.12,4.57763671875E-05,-0.000291824340820313,-0.0062713623046875,0,
00:00:01.124,4.57763671875E-05,-0.00029754638671875,-0.00625419616699219,0,
00:00:01.128,9.1552734375E-05,-0.000286102294921875,-0.00625991821289063,0,
00:00:01.132,6.866455078125E-05,-0.000286102294921875,-0.00623130798339844,0,
00:00:01.136,4.57763671875E-05,-0.000291824340820313,-0.00624275207519531,0,
00:00:01.14,5.7220458984375E-05,-0.000286102294921875,-0.00623703002929688,0,
00:00:01.144,8.0108642578125E-05,-0.000274658203125,-0.00624275207519531,0,
00:00:01.148,2.86102294921875E-05,-0.000280380249023438,-0.00623703002929688,0,
00:00:01.152,3.4332275390625E-05,-0.000291824340820313,-0.0062255859375,0,
00:00:01.156,5.7220458984375E-05,-0.000286102294921875,-0.00623703002929688,0,
00:00:01.16,3.4332275390625E-05,-0.000274658203125,-0.00624847412109375,0,
00:00:01.164,6.29425048828125E-05,-0.000280380249023438,-0.00620841979980469,0,
00:00:01.168,6.866455078125E-05,-0.000274658203125,-0.00620269775390625,0,
00:00:01.172,1.71661376953125E-05,-0.000286102294921875,-0.00619697570800781,0,
00:00:01.176,1.71661376953125E-05,-0.000280380249023438,-0.00619697570800781,0,
00:00:01.18,5.14984130859375E-05,-0.000268936157226563,-0.00619125366210938,0,
00:00:01.184,5.14984130859375E-05,-0.000263214111328125,-0.00618553161621094,0,
00:00:01.188,7.43865966796875E-05,-0.000274658203125,-0.0061798095703125,0,
00:00:01.192,4.57763671875E-05,-0.000274658203125,-0.00616264343261719,0,
00:00:01.196,1.1444091796875E-05,-0.000274658203125,-0.00615119934082031,0,
00:00:01.2,1.71661376953125E-05,-0.000274658203125,-0.00616836547851563,0,
00:00:01.204,4.57763671875E-05,-0.000268936157226563,-0.00618553161621094,0,
00:00:01.208,6.866455078125E-05,-0.000263214111328125,-0.00621986389160156,0,
00:00:01.212,6.866455078125E-05,-0.000263214111328125,-0.00613975524902344,0,
00:00:01.216,3.4332275390625E-05,-0.00025177001953125,-0.00614547729492188,0,
00:00:01.22,3.4332275390625E-05,-0.000263214111328125,-0.00613975524902344,0,
00:00:01.224,7.43865966796875E-05,-0.000263214111328125,-0.00611686706542969,0,
00:00:01.228,2.86102294921875E-05,-0.000257492065429688,-0.006134033203125,0,
00:00:01.232,5.7220458984375E-06,-0.000268936157226563,-0.00605964660644531,0,
00:00:01.236,9.72747802734375E-05,-0.000268936157226563,-0.00610542297363281,0,
00:00:01.24,4.57763671875E-05,-0.000263214111328125,-0.00612258911132813,0,
00:00:01.244,1.71661376953125E-05,-0.000257492065429688,-0.00615119934082031,0,
00:00:01.248,2.288818359375E-05,-0.000268936157226563,-0.00608253479003906,0,
00:00:01.252,5.14984130859375E-05,-0.000263214111328125,-0.00608253479003906,0,
00:00:01.256,5.7220458984375E-05,-0.000257492065429688,-0.00610542297363281,0,
00:00:01.26,7.43865966796875E-05,-0.00025177001953125,-0.00611686706542969,0,
00:00:01.264,5.7220458984375E-05,-0.000263214111328125,-0.00610542297363281,0,
00:00:01.268,4.00543212890625E-05,-0.000268936157226563,-0.00608253479003906,0,
00:00:01.272,1.71661376953125E-05,-0.00025177001953125,-0.00607681274414063,0,
00:00:01.276,5.14984130859375E-05,-0.00025177001953125,-0.00610542297363281,0,
00:00:01.28,5.7220458984375E-05,-0.000257492065429688,-0.00605392456054688,0,
00:00:01.284,5.14984130859375E-05,-0.000257492065429688,-0.00607109069824219,0,
00:00:01.288,2.288818359375E-05,-0.00025177001953125,-0.00608253479003906,0,
00:00:01.292,3.4332275390625E-05,-0.000246047973632813,-0.00603675842285156,0,
00:00:01.296,-5.7220458984375E-06,-0.000263214111328125,-0.00603103637695313,0,
00:00:01.3,6.29425048828125E-05,-0.00025177001953125,-0.00605392456054688,0,
00:00:01.304,5.14984130859375E-05,-0.000257492065429688,-0.00603103637695313,0,
00:00:01.308,1.1444091796875E-05,-0.000257492065429688,-0.00600814819335938,0,
00:00:01.312,1.71661376953125E-05,-0.000257492065429688,-0.00601387023925781,0,
00:00:01.316,5.14984130859375E-05,-0.00025177001953125,-0.00601387023925781,0,
00:00:01.32,5.7220458984375E-05,-0.00025177001953125,-0.00601959228515625,0,
00:00:01.324,5.7220458984375E-06,-0.00025177001953125,-0.00601387023925781,0,
00:00:01.328,5.7220458984375E-05,-0.00025177001953125,-0.00603103637695313,0,
00:00:01.332,6.866455078125E-05,-0.000257492065429688,-0.00604820251464844,0,
00:00:01.336,5.7220458984375E-05,-0.000257492065429688,-0.00597381591796875,0,
00:00:01.34,0,-0.00025177001953125,-0.00601387023925781,0,
00:00:01.344,5.7220458984375E-05,-0.000268936157226563,-0.00598526000976563,0,
00:00:01.348,4.57763671875E-05,-0.000268936157226563,-0.00600814819335938,0,
00:00:01.352,5.7220458984375E-06,-0.000263214111328125,-0.00596809387207031,0,
00:00:01.356,5.7220458984375E-05,-0.000257492065429688,-0.00596809387207031,0,
00:00:01.36,6.866455078125E-05,-0.000257492065429688,-0.005950927734375,0,
00:00:01.364,4.00543212890625E-05,-0.000257492065429688,-0.005950927734375,0,
00:00:01.368,5.7220458984375E-06,-0.000263214111328125,-0.00596237182617188,0,
00:00:01.372,5.7220458984375E-06,-0.000257492065429688,-0.00595664978027344,0,
00:00:01.376,4.57763671875E-05,-0.000257492065429688,-0.00596237182617188,0,
00:00:01.38,5.7220458984375E-05,-0.000268936157226563,-0.00593376159667969,0,
00:00:01.384,3.4332275390625E-05,-0.000268936157226563,-0.00591659545898438,0,
00:00:01.388,7.43865966796875E-05,-0.000268936157226563,-0.00597381591796875,0,
00:00:01.392,6.29425048828125E-05,-0.00025177001953125,-0.00598526000976563,0,
00:00:01.396,4.57763671875E-05,-0.00025177001953125,-0.00596809387207031,0,
00:00:01.4,4.00543212890625E-05,-0.000257492065429688,-0.00591087341308594,0,
00:00:01.404,1.1444091796875E-05,-0.000257492065429688,-0.00591659545898438,0,
00:00:01.408,5.7220458984375E-05,-0.000263214111328125,-0.0059051513671875,0,
00:00:01.412,4.57763671875E-05,-0.000263214111328125,-0.00589942932128906,0,
00:00:01.416,3.4332275390625E-05,-0.000263214111328125,-0.00591659545898438,0,
00:00:01.42,1.1444091796875E-05,-0.000246047973632813,-0.00588798522949219,0,
00:00:01.424,5.7220458984375E-05,-0.00025177001953125,-0.00589370727539063,0,
00:00:01.428,5.14984130859375E-05,-0.000257492065429688,-0.0059051513671875,0,
00:00:01.432,4.57763671875E-05,-0.000263214111328125,-0.00589942932128906,0,
00:00:01.436,2.288818359375E-05,-0.000263214111328125,-0.00589942932128906,0,
00:00:01.44,1.1444091796875E-05,-0.000257492065429688,-0.00589942932128906,0,
00:00:01.444,2.86102294921875E-05,-0.00025177001953125,-0.00586509704589844,0,
00:00:01.448,3.4332275390625E-05,-0.000257492065429688,-0.00585365295410156,0,
00:00:01.452,3.4332275390625E-05,-0.000263214111328125,-0.00588798522949219,0,
00:00:01.456,1.71661376953125E-05,-0.000246047973632813,-0.00591087341308594,0,
00:00:01.46,0,-0.00025177001953125,-0.00587654113769531,0,
00:00:01.464,4.00543212890625E-05,-0.00025177001953125,-0.00585365295410156,0,
00:00:01.468,-5.7220458984375E-06,-0.000246047973632813,-0.00584793090820313,0,
00:00:01.472,3.4332275390625E-05,-0.00025177001953125,-0.00586509704589844,0,
00:00:01.476,7.43865966796875E-05,-0.000246047973632813,-0.00582504272460938,0,
00:00:01.48,4.00543212890625E-05,-0.00025177001953125,-0.00582504272460938,0,
00:00:01.484,7.43865966796875E-05,-0.000246047973632813,-0.00582504272460938,0,
00:00:01.488,5.14984130859375E-05,-0.000246047973632813,-0.00583648681640625,0,
00:00:01.492,-2.288818359375E-05,-0.00025177001953125,-0.00582504272460938,0,
00:00:01.496,1.1444091796875E-05,-0.000246047973632813,-0.0058135986328125,0,
00:00:01.5,4.00543212890625E-05,-0.000240325927734375,-0.00584793090820313,0,
00:00:01.504,2.288818359375E-05,-0.000246047973632813,-0.00582504272460938,0,
00:00:01.508,6.29425048828125E-05,-0.000246047973632813,-0.00578498840332031,0,
00:00:01.512,4.00543212890625E-05,-0.000240325927734375,-0.00577354431152344,0,
00:00:01.516,2.86102294921875E-05,-0.00025177001953125,-0.00580215454101563,0,
00:00:01.52,3.4332275390625E-05,-0.000240325927734375,-0.0058135986328125,0,
00:00:01.524,3.4332275390625E-05,-0.00025177001953125,-0.00579071044921875,0,
00:00:01.528,1.71661376953125E-05,-0.00025177001953125,-0.00577926635742188,0,
00:00:01.532,4.00543212890625E-05,-0.00025177001953125,-0.00580787658691406,0,
00:00:01.536,1.71661376953125E-05,-0.00025177001953125,-0.00578498840332031,0,
00:00:01.54,2.288818359375E-05,-0.000246047973632813,-0.00577926635742188,0,
00:00:01.544,5.14984130859375E-05,-0.000246047973632813,-0.005767822265625,0,
00:00:01.548,2.86102294921875E-05,-0.000240325927734375,-0.00575637817382813,0,
00:00:01.552,1.71661376953125E-05,-0.000240325927734375,-0.00577354431152344,0,
00:00:01.556,2.86102294921875E-05,-0.000246047973632813,-0.00576210021972656,0,
00:00:01.56,1.1444091796875E-05,-0.000246047973632813,-0.00576210021972656,0,
00:00:01.564,1.71661376953125E-05,-0.000246047973632813,-0.00576210021972656,0,
00:00:01.568,5.14984130859375E-05,-0.000240325927734375,-0.00574493408203125,0,
00:00:01.572,2.288818359375E-05,-0.00025177001953125,-0.00573348999023438,0,
00:00:01.576,1.1444091796875E-05,-0.000240325927734375,-0.00572776794433594,0,
00:00:01.58,-5.7220458984375E-06,-0.000246047973632813,-0.00571632385253906,0,
00:00:01.584,1.1444091796875E-05,-0.000246047973632813,-0.00575065612792969,0,
00:00:01.588,3.4332275390625E-05,-0.000246047973632813,-0.00570487976074219,0,
00:00:01.592,2.86102294921875E-05,-0.00025177001953125,-0.00570487976074219,0,
00:00:01.596,1.71661376953125E-05,-0.000240325927734375,-0.00571060180664063,0,
00:00:01.6,1.1444091796875E-05,-0.000234603881835938,-0.00570487976074219,0,
00:00:01.604,2.86102294921875E-05,-0.000234603881835938,-0.00571632385253906,0,
00:00:01.608,4.00543212890625E-05,-0.000246047973632813,-0.00569343566894531,0,
00:00:01.612,3.4332275390625E-05,-0.00025177001953125,-0.00568199157714844,0,
00:00:01.616,0,-0.00025177001953125,-0.00567626953125,0,
00:00:01.62,1.1444091796875E-05,-0.00025177001953125,-0.00567626953125,0,
00:00:01.624,1.1444091796875E-05,-0.000246047973632813,-0.00564765930175781,0,
00:00:01.628,1.71661376953125E-05,-0.000246047973632813,-0.00566482543945313,0,
00:00:01.632,5.7220458984375E-06,-0.000246047973632813,-0.00567626953125,0,
00:00:01.636,0,-0.000240325927734375,-0.00566482543945313,0,
00:00:01.64,5.7220458984375E-06,-0.000240325927734375,-0.00566482543945313,0,
00:00:01.644,2.86102294921875E-05,-0.000234603881835938,-0.00567626953125,0,
00:00:01.648,1.1444091796875E-05,-0.000234603881835938,-0.00564765930175781,0,
00:00:01.652,5.14984130859375E-05,-0.000234603881835938,-0.00567626953125,0,
00:00:01.656,4.57763671875E-05,-0.0002288818359375,-0.00564765930175781,0,
00:00:01.66,2.86102294921875E-05,-0.000240325927734375,-0.00563621520996094,0,
00:00:01.664,2.86102294921875E-05,-0.000240325927734375,-0.0056304931640625,0,
00:00:01.668,1.71661376953125E-05,-0.000240325927734375,-0.00563621520996094,0,
00:00:01.672,1.1444091796875E-05,-0.000246047973632813,-0.00561332702636719,0,
00:00:01.676,2.86102294921875E-05,-0.000234603881835938,-0.00560760498046875,0,
00:00:01.68,2.86102294921875E-05,-0.0002288818359375,-0.00562477111816406,0,
00:00:01.684,-1.1444091796875E-05,-0.0002288818359375,-0.00564765930175781,0,
00:00:01.688,-5.7220458984375E-06,-0.000234603881835938,-0.00560188293457031,0,
00:00:01.692,5.14984130859375E-05,-0.0002288818359375,-0.00557327270507813,0,
00:00:01.696,-2.288818359375E-05,-0.000240325927734375,-0.00560188293457031,0,
00:00:01.7,1.1444091796875E-05,-0.000234603881835938,-0.00561332702636719,0,
00:00:01.704,2.288818359375E-05,-0.0002288818359375,-0.00557899475097656,0,
00:00:01.708,-5.7220458984375E-06,-0.000223159790039063,-0.00557899475097656,0,
00:00:01.712,-5.7220458984375E-06,-0.0002288818359375,-0.00556755065917969,0,
00:00:01.716,2.86102294921875E-05,-0.000223159790039063,-0.00557327270507813,0,
00:00:01.72,2.288818359375E-05,-0.000223159790039063,-0.00561332702636719,0,
00:00:01.724,2.86102294921875E-05,-0.000223159790039063,-0.00557327270507813,0,
00:00:01.728,6.29425048828125E-05,-0.0002288818359375,-0.00556755065917969,0,
00:00:01.732,2.288818359375E-05,-0.000240325927734375,-0.00557327270507813,0,
00:00:01.736,2.288818359375E-05,-0.000234603881835938,-0.00556182861328125,0,
00:00:01.74,2.288818359375E-05,-0.000223159790039063,-0.00556755065917969,0,
00:00:01.744,1.71661376953125E-05,-0.000223159790039063,-0.00554466247558594,0,
00:00:01.748,1.1444091796875E-05,-0.0002288818359375,-0.00553321838378906,0,
00:00:01.752,1.1444091796875E-05,-0.0002288818359375,-0.00553321838378906,0,
00:00:01.756,-1.1444091796875E-05,-0.000217437744140625,-0.0055389404296875,0,
00:00:01.76,-1.1444091796875E-05,-0.00020599365234375,-0.00556755065917969,0,
00:00:01.764,0,-0.00020599365234375,-0.00557327270507813,0,
00:00:01.768,0,-0.0002288818359375,-0.00551033020019531,0,
00:00:01.772,1.1444091796875E-05,-0.000223159790039063,-0.00549888610839844,0,
00:00:01.776,1.1444091796875E-05,-0.000211715698242188,-0.00551033020019531,0,
00:00:01.78,-1.71661376953125E-05,-0.000223159790039063,-0.0055389404296875,0,
00:00:01.784,5.7220458984375E-06,-0.000223159790039063,-0.00548744201660156,0,
00:00:01.788,-5.7220458984375E-06,-0.000217437744140625,-0.00552749633789063,0,
00:00:01.792,-1.71661376953125E-05,-0.0002288818359375,-0.00549888610839844,0,
00:00:01.796,1.71661376953125E-05,-0.000223159790039063,-0.0054931640625,0,
00:00:01.8,1.71661376953125E-05,-0.000223159790039063,-0.00547027587890625,0,
00:00:01.804,1.71661376953125E-05,-0.000223159790039063,-0.00550460815429688,0,
00:00:01.808,2.288818359375E-05,-0.000211715698242188,-0.00548744201660156,0,
00:00:01.812,5.14984130859375E-05,-0.000217437744140625,-0.00548171997070313,0,
00:00:01.816,2.86102294921875E-05,-0.000223159790039063,-0.00545883178710938,0,
00:00:01.82,-1.71661376953125E-05,-0.000223159790039063,-0.00547599792480469,0,
00:00:01.824,0,-0.000223159790039063,-0.00548744201660156,0,
00:00:01.828,1.71661376953125E-05,-0.000217437744140625,-0.00548171997070313,0,
00:00:01.832,5.7220458984375E-06,-0.0002288818359375,-0.00545883178710938,0,
00:00:01.836,-5.7220458984375E-06,-0.000223159790039063,-0.00545310974121094,0,
00:00:01.84,-5.7220458984375E-06,-0.000211715698242188,-0.00547027587890625,0,
00:00:01.844,5.7220458984375E-06,-0.000223159790039063,-0.00545310974121094,0,
00:00:01.848,-1.71661376953125E-05,-0.0002288818359375,-0.00544166564941406,0,
00:00:01.852,-5.7220458984375E-06,-0.0002288818359375,-0.00543594360351563,0,
00:00:01.856,1.1444091796875E-05,-0.0002288818359375,-0.00545883178710938,0,
00:00:01.86,2.288818359375E-05,-0.000223159790039063,-0.00544166564941406,0,
00:00:01.864,-5.7220458984375E-06,-0.000217437744140625,-0.00544166564941406,0,
00:00:01.868,-2.288818359375E-05,-0.000211715698242188,-0.00543594360351563,0,
00:00:01.872,-2.288818359375E-05,-0.000223159790039063,-0.00542449951171875,0,
00:00:01.876,-2.288818359375E-05,-0.000217437744140625,-0.00544166564941406,0,
00:00:01.88,-1.71661376953125E-05,-0.00020599365234375,-0.00541877746582031,0,
00:00:01.884,-5.7220458984375E-06,-0.000217437744140625,-0.0054473876953125,0,
00:00:01.888,1.71661376953125E-05,-0.000217437744140625,-0.00538444519042969,0,
00:00:01.892,2.288818359375E-05,-0.000223159790039063,-0.00537872314453125,0,
00:00:01.896,2.288818359375E-05,-0.000223159790039063,-0.00540733337402344,0,
00:00:01.9,2.288818359375E-05,-0.000223159790039063,-0.00543022155761719,0,
00:00:01.904,2.288818359375E-05,-0.0002288818359375,-0.00539016723632813,0,
00:00:01.908,1.1444091796875E-05,-0.000217437744140625,-0.00541305541992188,0,
00:00:01.912,5.7220458984375E-06,-0.0002288818359375,-0.00541877746582031,0,
00:00:01.916,-5.7220458984375E-06,-0.0002288818359375,-0.00536727905273438,0,
00:00:01.92,0,-0.000211715698242188,-0.00534439086914063,0,
00:00:01.924,5.7220458984375E-06,-0.000223159790039063,-0.00539588928222656,0,
00:00:01.928,1.1444091796875E-05,-0.000217437744140625,-0.00537300109863281,0,
00:00:01.932,0,-0.000223159790039063,-0.00536727905273438,0,
00:00:01.936,1.71661376953125E-05,-0.000223159790039063,-0.00535011291503906,0,
00:00:01.94,5.7220458984375E-06,-0.000217437744140625,-0.00536155700683594,0,
00:00:01.944,1.71661376953125E-05,-0.000217437744140625,-0.00536727905273438,0,
00:00:01.948,1.1444091796875E-05,-0.000223159790039063,-0.00537872314453125,0,
00:00:01.952,-7.43865966796875E-05,-0.000223159790039063,-0.00535011291503906,0,
00:00:01.956,0,-0.000217437744140625,-0.00535011291503906,0,
00:00:01.96,-1.1444091796875E-05,-0.000211715698242188,-0.00533866882324219,0,
00:00:01.964,-4.57763671875E-05,-0.000223159790039063,-0.00531005859375,0,
00:00:01.968,-1.71661376953125E-05,-0.0002288818359375,-0.00531578063964844,0,
00:00:01.972,5.7220458984375E-06,-0.000223159790039063,-0.00533866882324219,0,
00:00:01.976,0,-0.000211715698242188,-0.00533294677734375,0,
00:00:01.98,-1.71661376953125E-05,-0.00020599365234375,-0.00533866882324219,0,
00:00:01.984,0,-0.000223159790039063,-0.00533294677734375,0,
00:00:01.988,-5.7220458984375E-06,-0.000217437744140625,-0.00532150268554688,0,
00:00:01.992,-1.71661376953125E-05,-0.000217437744140625,-0.00529861450195313,0,
00:00:01.996,5.7220458984375E-06,-0.00020599365234375,-0.00533866882324219,0,
00:00:02,0,-0.000194549560546875,-0.00533866882324219,0,
00:00:02.004,5.7220458984375E-06,-0.00020599365234375,-0.00529861450195313,0,
00:00:02.008,5.7220458984375E-06,-0.000223159790039063,-0.00533294677734375,0,
00:00:02.012,1.1444091796875E-05,-0.000211715698242188,-0.00529861450195313,0,
00:00:02.016,0,-0.00020599365234375,-0.00529861450195313,0,
00:00:02.02,1.71661376953125E-05,-0.000200271606445313,-0.00532150268554688,0,
00:00:02.024,-1.1444091796875E-05,-0.000200271606445313,-0.00530433654785156,0,
00:00:02.028,-2.288818359375E-05,-0.00020599365234375,-0.00530433654785156,0,
00:00:02.032,-2.288818359375E-05,-0.00020599365234375,-0.00528144836425781,0,
00:00:02.036,-5.7220458984375E-06,-0.000217437744140625,-0.00529289245605469,0,
00:00:02.04,-2.86102294921875E-05,-0.000217437744140625,-0.0052642822265625,0,
00:00:02.044,-4.00543212890625E-05,-0.000211715698242188,-0.00527000427246094,0,
00:00:02.048,-6.866455078125E-05,-0.000211715698242188,-0.00527000427246094,0,
00:00:02.052,-3.4332275390625E-05,-0.000200271606445313,-0.00528717041015625,0,
00:00:02.056,-4.57763671875E-05,-0.000200271606445313,-0.0052642822265625,0,
00:00:02.06,5.7220458984375E-06,-0.00020599365234375,-0.0052642822265625,0,
00:00:02.064,1.1444091796875E-05,-0.000211715698242188,-0.00525283813476563,0,
00:00:02.068,-1.1444091796875E-05,-0.000217437744140625,-0.00522994995117188,0,
00:00:02.072,-3.4332275390625E-05,-0.000217437744140625,-0.00524711608886719,0,
00:00:02.076,3.4332275390625E-05,-0.000200271606445313,-0.00527000427246094,0,
00:00:02.08,0,-0.000200271606445313,-0.00527000427246094,0,
00:00:02.084,-5.7220458984375E-06,-0.000200271606445313,-0.00525283813476563,0,
00:00:02.088,0,-0.00020599365234375,-0.00525283813476563,0,
00:00:02.092,-5.7220458984375E-06,-0.00020599365234375,-0.00527000427246094,0,
00:00:02.096,5.7220458984375E-06,-0.000188827514648438,-0.00525856018066406,0,
00:00:02.1,0,-0.000194549560546875,-0.00520133972167969,0,
00:00:02.104,-1.71661376953125E-05,-0.00020599365234375,-0.00522422790527344,0,
00:00:02.108,-2.288818359375E-05,-0.000211715698242188,-0.00519561767578125,0,
00:00:02.112,-1.71661376953125E-05,-0.000211715698242188,-0.00521278381347656,0,
00:00:02.116,-1.71661376953125E-05,-0.000211715698242188,-0.00520706176757813,0,
00:00:02.12,-5.7220458984375E-06,-0.000211715698242188,-0.00522994995117188,0,
00:00:02.124,-2.288818359375E-05,-0.000217437744140625,-0.00520706176757813,0,
00:00:02.128,-2.86102294921875E-05,-0.000217437744140625,-0.00520706176757813,0,
00:00:02.132,-3.4332275390625E-05,-0.000217437744140625,-0.00522422790527344,0,
00:00:02.136,2.86102294921875E-05,-0.000200271606445313,-0.00520133972167969,0,
00:00:02.14,2.288818359375E-05,-0.000194549560546875,-0.005218505859375,0,
00:00:02.144,-5.7220458984375E-06,-0.000200271606445313,-0.00522422790527344,0,
00:00:02.148,-1.71661376953125E-05,-0.00020599365234375,-0.00517845153808594,0,
00:00:02.152,-0.00011444091796875,-0.000200271606445313,-0.00516128540039063,0,
00:00:02.156,-5.7220458984375E-06,-0.000194549560546875,-0.005218505859375,0,
00:00:02.16,5.14984130859375E-05,-0.000194549560546875,-0.00520133972167969,0,
00:00:02.164,5.7220458984375E-06,-0.00020599365234375,-0.0051727294921875,0,
00:00:02.168,-2.288818359375E-05,-0.000200271606445313,-0.00516700744628906,0,
00:00:02.172,1.1444091796875E-05,-0.000200271606445313,-0.00514984130859375,0,
00:00:02.176,-2.288818359375E-05,-0.000194549560546875,-0.00516700744628906,0,
00:00:02.18,-5.14984130859375E-05,-0.000188827514648438,-0.00516700744628906,0,
00:00:02.184,-1.1444091796875E-05,-0.000188827514648438,-0.00515556335449219,0,
00:00:02.188,-1.71661376953125E-05,-0.000200271606445313,-0.00513839721679688,0,
00:00:02.192,0,-0.000211715698242188,-0.00515556335449219,0,
00:00:02.196,-5.7220458984375E-06,-0.000188827514648438,-0.00514984130859375,0,
00:00:02.2,-5.7220458984375E-06,-0.000188827514648438,-0.00514984130859375,0,
00:00:02.204,-5.7220458984375E-06,-0.000194549560546875,-0.0051727294921875,0,
00:00:02.208,-2.288818359375E-05,-0.000211715698242188,-0.00514411926269531,0,
00:00:02.212,-5.14984130859375E-05,-0.000211715698242188,-0.00512123107910156,0,
00:00:02.216,1.1444091796875E-05,-0.00020599365234375,-0.00513839721679688,0,
00:00:02.22,2.288818359375E-05,-0.000200271606445313,-0.00515556335449219,0,
00:00:02.224,5.7220458984375E-06,-0.000194549560546875,-0.00510406494140625,0,
00:00:02.228,-4.00543212890625E-05,-0.00020599365234375,-0.00511550903320313,0,
00:00:02.232,-1.71661376953125E-05,-0.000211715698242188,-0.00511550903320313,0,
00:00:02.236,-6.29425048828125E-05,-0.000211715698242188,-0.00510406494140625,0,
00:00:02.24,-3.4332275390625E-05,-0.000194549560546875,-0.00512123107910156,0,
00:00:02.244,2.86102294921875E-05,-0.000194549560546875,-0.00511550903320313,0,
00:00:02.248,5.7220458984375E-06,-0.000194549560546875,-0.00509834289550781,0,
00:00:02.252,-5.7220458984375E-06,-0.000194549560546875,-0.00509834289550781,0,
00:00:02.256,-1.1444091796875E-05,-0.000194549560546875,-0.00509262084960938,0,
00:00:02.26,-2.86102294921875E-05,-0.000200271606445313,-0.00510978698730469,0,
00:00:02.264,-1.1444091796875E-05,-0.000200271606445313,-0.00510406494140625,0,
00:00:02.268,-1.71661376953125E-05,-0.00020599365234375,-0.00507545471191406,0,
00:00:02.272,-1.71661376953125E-05,-0.000200271606445313,-0.00509262084960938,0,
00:00:02.276,-1.1444091796875E-05,-0.000188827514648438,-0.0050811767578125,0,
00:00:02.28,-3.4332275390625E-05,-0.000188827514648438,-0.00508689880371094,0,
00:00:02.284,-4.57763671875E-05,-0.000194549560546875,-0.00504684448242188,0,
00:00:02.288,-5.7220458984375E-05,-0.000194549560546875,-0.00505828857421875,0,
00:00:02.292,2.86102294921875E-05,-0.00018310546875,-0.0050811767578125,0,
00:00:02.296,-1.1444091796875E-05,-0.000188827514648438,-0.00508689880371094,0,
00:00:02.3,-0.000125885009765625,-0.000194549560546875,-0.00506401062011719,0,
00:00:02.304,-5.14984130859375E-05,-0.000194549560546875,-0.00504684448242188,0,
00:00:02.308,8.58306884765625E-05,-0.000194549560546875,-0.00505256652832031,0,
00:00:02.312,2.86102294921875E-05,-0.000194549560546875,-0.00506973266601563,0,
00:00:02.316,-1.71661376953125E-05,-0.000194549560546875,-0.00506973266601563,0,
00:00:02.32,-2.86102294921875E-05,-0.00018310546875,-0.00506401062011719,0,
00:00:02.324,0,-0.000188827514648438,-0.00504684448242188,0,
00:00:02.328,2.288818359375E-05,-0.000188827514648438,-0.00502967834472656,0,
00:00:02.332,5.7220458984375E-06,-0.000188827514648438,-0.00502967834472656,0,
00:00:02.336,0,-0.000188827514648438,-0.00504112243652344,0,
00:00:02.34,0,-0.000194549560546875,-0.00506973266601563,0,
00:00:02.344,-1.1444091796875E-05,-0.000188827514648438,-0.00502395629882813,0,
00:00:02.348,5.7220458984375E-06,-0.000188827514648438,-0.00502395629882813,0,
00:00:02.352,-5.7220458984375E-06,-0.000194549560546875,-0.005035400390625,0,
00:00:02.356,-1.1444091796875E-05,-0.000194549560546875,-0.00500679016113281,0,
00:00:02.36,-1.1444091796875E-05,-0.000200271606445313,-0.00502395629882813,0,
00:00:02.364,-1.71661376953125E-05,-0.000194549560546875,-0.00501823425292969,0,
00:00:02.368,0,-0.00018310546875,-0.005035400390625,0,
00:00:02.372,-1.1444091796875E-05,-0.000188827514648438,-0.00500679016113281,0,
00:00:02.376,-4.57763671875E-05,-0.000194549560546875,-0.00500679016113281,0,
00:00:02.38,5.7220458984375E-06,-0.000188827514648438,-0.00502395629882813,0,
00:00:02.384,1.1444091796875E-05,-0.000188827514648438,-0.00499534606933594,0,
00:00:02.388,-2.288818359375E-05,-0.000188827514648438,-0.00500679016113281,0,
00:00:02.392,-2.288818359375E-05,-0.000188827514648438,-0.00501251220703125,0,
00:00:02.396,2.288818359375E-05,-0.000194549560546875,-0.00497817993164063,0,
00:00:02.4,1.1444091796875E-05,-0.00018310546875,-0.00498390197753906,0,
00:00:02.404,-2.86102294921875E-05,-0.000194549560546875,-0.00497817993164063,0,
00:00:02.408,-5.7220458984375E-06,-0.000188827514648438,-0.00497245788574219,0,
00:00:02.412,1.71661376953125E-05,-0.00018310546875,-0.0049896240234375,0,
00:00:02.416,-2.86102294921875E-05,-0.000188827514648438,-0.00500679016113281,0,
00:00:02.42,-2.86102294921875E-05,-0.00018310546875,-0.0049896240234375,0,
00:00:02.424,-1.1444091796875E-05,-0.000188827514648438,-0.00495529174804688,0,
00:00:02.428,-1.71661376953125E-05,-0.000188827514648438,-0.00493240356445313,0,
00:00:02.432,-1.1444091796875E-05,-0.00018310546875,-0.00495529174804688,0,
00:00:02.436,0,-0.000171661376953125,-0.00497245788574219,0,
00:00:02.44,-1.1444091796875E-05,-0.00018310546875,-0.00498390197753906,0,
00:00:02.444,1.1444091796875E-05,-0.00018310546875,-0.00494956970214844,0,
00:00:02.448,-1.71661376953125E-05,-0.000177383422851563,-0.00495529174804688,0,
00:00:02.452,-1.71661376953125E-05,-0.00018310546875,-0.00492095947265625,0,
00:00:02.456,-3.4332275390625E-05,-0.000188827514648438,-0.00493812561035156,0,
00:00:02.46,2.288818359375E-05,-0.000177383422851563,-0.00496101379394531,0,
00:00:02.464,5.7220458984375E-06,-0.00018310546875,-0.00493240356445313,0,
00:00:02.468,-1.1444091796875E-05,-0.000194549560546875,-0.00493812561035156,0,
00:00:02.472,-2.86102294921875E-05,-0.000188827514648438,-0.00493240356445313,0,
00:00:02.476,-2.288818359375E-05,-0.00018310546875,-0.00493240356445313,0,
00:00:02.48,-1.1444091796875E-05,-0.00018310546875,-0.00497817993164063,0,
00:00:02.484,-1.1444091796875E-05,-0.00018310546875,-0.00492095947265625,0,
00:00:02.488,-1.71661376953125E-05,-0.000188827514648438,-0.00491523742675781,0,
00:00:02.492,-2.288818359375E-05,-0.00018310546875,-0.00491523742675781,0,
00:00:02.496,-2.288818359375E-05,-0.00018310546875,-0.00494956970214844,0,
00:00:02.5,-2.86102294921875E-05,-0.000177383422851563,-0.00493240356445313,0,
00:00:02.504,-3.4332275390625E-05,-0.00016021728515625,-0.00492095947265625,0,
00:00:02.508,-1.1444091796875E-05,-0.000171661376953125,-0.00493812561035156,0,
00:00:02.512,-1.71661376953125E-05,-0.00018310546875,-0.00493240356445313,0,
00:00:02.516,-4.00543212890625E-05,-0.000171661376953125,-0.00490379333496094,0,
00:00:02.52,-7.43865966796875E-05,-0.00018310546875,-0.00488090515136719,0,
00:00:02.524,-5.7220458984375E-06,-0.000177383422851563,-0.00490379333496094,0,
00:00:02.528,-5.7220458984375E-06,-0.00018310546875,-0.0048980712890625,0,
00:00:02.532,5.7220458984375E-06,-0.00018310546875,-0.00488662719726563,0,
00:00:02.536,-1.71661376953125E-05,-0.000177383422851563,-0.00488662719726563,0,
00:00:02.54,5.7220458984375E-06,-0.000177383422851563,-0.00491523742675781,0,
00:00:02.544,1.1444091796875E-05,-0.00018310546875,-0.00490379333496094,0,
00:00:02.548,-1.71661376953125E-05,-0.00018310546875,-0.00487518310546875,0,
00:00:02.552,-1.1444091796875E-05,-0.000188827514648438,-0.00487518310546875,0,
00:00:02.556,-2.288818359375E-05,-0.00018310546875,-0.00488090515136719,0,
00:00:02.56,-1.71661376953125E-05,-0.00018310546875,-0.00489234924316406,0,
00:00:02.564,-2.86102294921875E-05,-0.000177383422851563,-0.004852294921875,0,
00:00:02.568,-2.288818359375E-05,-0.000171661376953125,-0.00487518310546875,0,
00:00:02.572,-2.288818359375E-05,-0.000177383422851563,-0.00486946105957031,0,
00:00:02.576,-2.288818359375E-05,-0.000165939331054688,-0.00489234924316406,0,
00:00:02.58,-4.00543212890625E-05,-0.000177383422851563,-0.00484657287597656,0,
00:00:02.584,-4.57763671875E-05,-0.000171661376953125,-0.00482940673828125,0,
00:00:02.588,-2.86102294921875E-05,-0.000177383422851563,-0.00489234924316406,0,
00:00:02.592,0,-0.000177383422851563,-0.00482368469238281,0,
00:00:02.596,-2.288818359375E-05,-0.000171661376953125,-0.00484657287597656,0,
00:00:02.6,-5.7220458984375E-05,-0.000177383422851563,-0.004852294921875,0,
00:00:02.604,-5.7220458984375E-06,-0.000177383422851563,-0.00482940673828125,0,
00:00:02.608,-5.14984130859375E-05,-0.000177383422851563,-0.00483512878417969,0,
00:00:02.612,0,-0.000165939331054688,-0.00484657287597656,0,
00:00:02.616,-5.7220458984375E-06,-0.00016021728515625,-0.004852294921875,0,
00:00:02.62,-3.4332275390625E-05,-0.000171661376953125,-0.00484085083007813,0,
00:00:02.624,-2.86102294921875E-05,-0.000177383422851563,-0.00484657287597656,0,
00:00:02.628,-2.288818359375E-05,-0.000177383422851563,-0.00482940673828125,0,
00:00:02.632,-5.7220458984375E-05,-0.00018310546875,-0.00481796264648438,0,
00:00:02.636,-5.14984130859375E-05,-0.00018310546875,-0.00484085083007813,0,
00:00:02.64,-1.1444091796875E-05,-0.000171661376953125,-0.00482940673828125,0,
00:00:02.644,-2.86102294921875E-05,-0.000188827514648438,-0.00482940673828125,0,
00:00:02.648,-2.288818359375E-05,-0.000177383422851563,-0.00482368469238281,0,
00:00:02.652,-1.71661376953125E-05,-0.000171661376953125,-0.0048065185546875,0,
00:00:02.656,-2.288818359375E-05,-0.000171661376953125,-0.00482940673828125,0,
00:00:02.66,-1.71661376953125E-05,-0.000171661376953125,-0.00479507446289063,0,
00:00:02.664,-4.00543212890625E-05,-0.000171661376953125,-0.00478935241699219,0,
00:00:02.668,-6.29425048828125E-05,-0.000177383422851563,-0.00480079650878906,0,
00:00:02.672,-3.4332275390625E-05,-0.000171661376953125,-0.00478363037109375,0,
00:00:02.676,-3.4332275390625E-05,-0.000165939331054688,-0.00477218627929688,0,
00:00:02.68,-5.14984130859375E-05,-0.000165939331054688,-0.00478935241699219,0,
00:00:02.684,-6.29425048828125E-05,-0.00016021728515625,-0.00479507446289063,0,
00:00:02.688,-7.43865966796875E-05,-0.00016021728515625,-0.00480079650878906,0,
00:00:02.692,-5.7220458984375E-06,-0.000177383422851563,-0.00480079650878906,0,
00:00:02.696,0,-0.000171661376953125,-0.00477790832519531,0,
00:00:02.7,-1.71661376953125E-05,-0.00016021728515625,-0.00479507446289063,0,
00:00:02.704,-1.71661376953125E-05,-0.000165939331054688,-0.00477218627929688,0,
00:00:02.708,-1.71661376953125E-05,-0.000165939331054688,-0.00475502014160156,0,
00:00:02.712,-2.288818359375E-05,-0.00016021728515625,-0.00477218627929688,0,
00:00:02.716,-2.86102294921875E-05,-0.00016021728515625,-0.00478363037109375,0,
00:00:02.72,-6.29425048828125E-05,-0.000165939331054688,-0.00478363037109375,0,
00:00:02.724,-2.86102294921875E-05,-0.000165939331054688,-0.00478363037109375,0,
00:00:02.728,-3.4332275390625E-05,-0.000171661376953125,-0.00477218627929688,0,
00:00:02.732,-4.00543212890625E-05,-0.000171661376953125,-0.00477790832519531,0,
00:00:02.736,-3.4332275390625E-05,-0.000165939331054688,-0.00479507446289063,0,
00:00:02.74,-4.00543212890625E-05,-0.000171661376953125,-0.00477218627929688,0,
00:00:02.744,-4.57763671875E-05,-0.000165939331054688,-0.00475502014160156,0,
00:00:02.748,-4.00543212890625E-05,-0.00016021728515625,-0.00476646423339844,0,
00:00:02.752,-8.0108642578125E-05,-0.000165939331054688,-0.0047607421875,0,
00:00:02.756,-5.14984130859375E-05,-0.000154495239257813,-0.00475502014160156,0,
00:00:02.76,-2.86102294921875E-05,-0.000154495239257813,-0.00475502014160156,0,
00:00:02.764,-5.7220458984375E-05,-0.000148773193359375,-0.0047607421875,0,
00:00:02.768,-0.000188827514648438,-0.000154495239257813,-0.0047607421875,0,
00:00:02.772,0,-0.000148773193359375,-0.0047149658203125,0,
00:00:02.776,-5.7220458984375E-06,-0.000154495239257813,-0.00476646423339844,0,
00:00:02.78,-5.14984130859375E-05,-0.000143051147460938,-0.00480079650878906,0,
00:00:02.784,1.1444091796875E-05,-0.000143051147460938,-0.00472640991210938,0,
00:00:02.788,-1.1444091796875E-05,-0.000154495239257813,-0.00472640991210938,0,
00:00:02.792,-3.4332275390625E-05,-0.000154495239257813,-0.00473785400390625,0,
00:00:02.796,-2.86102294921875E-05,-0.000148773193359375,-0.00474357604980469,0,
00:00:02.8,-4.00543212890625E-05,-0.000154495239257813,-0.00474929809570313,0,
00:00:02.804,-6.29425048828125E-05,-0.00016021728515625,-0.00474357604980469,0,
00:00:02.808,-5.7220458984375E-05,-0.000165939331054688,-0.00473213195800781,0,
00:00:02.812,-2.86102294921875E-05,-0.00016021728515625,-0.00473785400390625,0,
00:00:02.816,-4.00543212890625E-05,-0.000165939331054688,-0.00473213195800781,0,
00:00:02.82,-2.86102294921875E-05,-0.00016021728515625,-0.0047149658203125,0,
00:00:02.824,-4.57763671875E-05,-0.00016021728515625,-0.00472640991210938,0,
00:00:02.828,-6.29425048828125E-05,-0.000154495239257813,-0.00472068786621094,0,
00:00:02.832,-4.00543212890625E-05,-0.000154495239257813,-0.00476646423339844,0,
00:00:02.836,-4.57763671875E-05,-0.00016021728515625,-0.00472068786621094,0,
00:00:02.84,-7.43865966796875E-05,-0.000171661376953125,-0.00470352172851563,0,
00:00:02.844,-5.7220458984375E-05,-0.000165939331054688,-0.00470924377441406,0,
00:00:02.848,-1.71661376953125E-05,-0.000165939331054688,-0.00472640991210938,0,
00:00:02.852,-4.00543212890625E-05,-0.000165939331054688,-0.00470352172851563,0,
00:00:02.856,-1.71661376953125E-05,-0.000165939331054688,-0.00472640991210938,0,
00:00:02.86,-5.7220458984375E-05,-0.000165939331054688,-0.0047149658203125,0,
00:00:02.864,-5.7220458984375E-06,-0.000148773193359375,-0.00473785400390625,0,
00:00:02.868,-8.0108642578125E-05,-0.00016021728515625,-0.00473213195800781,0,
00:00:02.872,-1.1444091796875E-05,-0.00016021728515625,-0.00470924377441406,0,
00:00:02.876,-6.866455078125E-05,-0.00016021728515625,-0.00473213195800781,0,
00:00:02.88,-4.57763671875E-05,-0.000165939331054688,-0.0047149658203125,0,
00:00:02.884,-3.4332275390625E-05,-0.000154495239257813,-0.00470924377441406,0,
00:00:02.888,-4.00543212890625E-05,-0.000154495239257813,-0.00470352172851563,0,
00:00:02.892,-4.57763671875E-05,-0.00016021728515625,-0.00473785400390625,0,
00:00:02.896,-3.4332275390625E-05,-0.000165939331054688,-0.00468063354492188,0,
00:00:02.9,-2.86102294921875E-05,-0.00016021728515625,-0.00469207763671875,0,
00:00:02.904,-2.86102294921875E-05,-0.00016021728515625,-0.00468063354492188,0,
00:00:02.908,-5.7220458984375E-05,-0.00016021728515625,-0.00468063354492188,0,
00:00:02.912,-4.00543212890625E-05,-0.000165939331054688,-0.00470352172851563,0,
00:00:02.916,-2.288818359375E-05,-0.00016021728515625,-0.00466346740722656,0,
00:00:02.92,-2.86102294921875E-05,-0.000154495239257813,-0.00469207763671875,0,
00:00:02.924,-5.14984130859375E-05,-0.000154495239257813,-0.00469207763671875,0,
00:00:02.928,-5.7220458984375E-05,-0.000148773193359375,-0.00469779968261719,0,
00:00:02.932,-2.288818359375E-05,-0.000154495239257813,-0.00469779968261719,0,
00:00:02.936,-4.57763671875E-05,-0.00016021728515625,-0.00469779968261719,0,
00:00:02.94,-5.14984130859375E-05,-0.00016021728515625,-0.00469207763671875,0,
00:00:02.944,-6.29425048828125E-05,-0.000165939331054688,-0.004669189453125,0,
00:00:02.948,-9.72747802734375E-05,-0.000165939331054688,-0.00467491149902344,0,
00:00:02.952,-5.14984130859375E-05,-0.00016021728515625,-0.00466346740722656,0,
00:00:02.956,-6.866455078125E-05,-0.000148773193359375,-0.004669189453125,0,
00:00:02.96,-2.86102294921875E-05,-0.000154495239257813,-0.00467491149902344,0,
00:00:02.964,-2.288818359375E-05,-0.000148773193359375,-0.00470352172851563,0,
00:00:02.968,-1.71661376953125E-05,-0.000148773193359375,-0.00470352172851563,0,
00:00:02.972,-2.86102294921875E-05,-0.000154495239257813,-0.00464057922363281,0,
00:00:02.976,-4.57763671875E-05,-0.00016021728515625,-0.00465774536132813,0,
00:00:02.98,-4.00543212890625E-05,-0.000165939331054688,-0.00468063354492188,0,
00:00:02.984,-4.00543212890625E-05,-0.00016021728515625,-0.00466346740722656,0,
00:00:02.988,-4.00543212890625E-05,-0.000148773193359375,-0.00464630126953125,0,
00:00:02.992,-2.86102294921875E-05,-0.00016021728515625,-0.00468063354492188,0,
00:00:02.996,-4.00543212890625E-05,-0.000148773193359375,-0.00465202331542969,0,
00:00:03,-3.4332275390625E-05,-0.000148773193359375,-0.004669189453125,0,
00:00:03.004,-3.4332275390625E-05,-0.000154495239257813,-0.004669189453125,0,
00:00:03.008,-4.57763671875E-05,-0.000154495239257813,-0.00466346740722656,0,
00:00:03.012,-5.7220458984375E-05,-0.000148773193359375,-0.00465774536132813,0,
00:00:03.016,-5.7220458984375E-05,-0.000148773193359375,-0.00465774536132813,0,
00:00:03.02,-3.4332275390625E-05,-0.000143051147460938,-0.00464630126953125,0,
00:00:03.024,-2.86102294921875E-05,-0.000148773193359375,-0.00464630126953125,0,
00:00:03.028,-4.00543212890625E-05,-0.000154495239257813,-0.004669189453125,0,
00:00:03.032,-1.71661376953125E-05,-0.000143051147460938,-0.004669189453125,0,
00:00:03.036,-3.4332275390625E-05,-0.000143051147460938,-0.00465202331542969,0,
00:00:03.04,-5.7220458984375E-05,-0.000154495239257813,-0.00462913513183594,0,
00:00:03.044,-2.86102294921875E-05,-0.000148773193359375,-0.004669189453125,0,
00:00:03.048,-5.7220458984375E-05,-0.000154495239257813,-0.00462913513183594,0,
00:00:03.052,-4.00543212890625E-05,-0.000154495239257813,-0.00460624694824219,0,
00:00:03.056,0,-0.000143051147460938,-0.00464630126953125,0,
00:00:03.06,-4.57763671875E-05,-0.000143051147460938,-0.004669189453125,0,
00:00:03.064,-2.86102294921875E-05,-0.000148773193359375,-0.00464630126953125,0,
00:00:03.068,-5.7220458984375E-05,-0.00016021728515625,-0.00464057922363281,0,
00:00:03.072,-1.71661376953125E-05,-0.000154495239257813,-0.0046234130859375,0,
00:00:03.076,-4.57763671875E-05,-0.00016021728515625,-0.0046234130859375,0,
00:00:03.08,-8.58306884765625E-05,-0.000154495239257813,-0.00462913513183594,0,
00:00:03.084,-3.4332275390625E-05,-0.000154495239257813,-0.00464630126953125,0,
00:00:03.088,-5.7220458984375E-05,-0.000148773193359375,-0.00461196899414063,0,
00:00:03.092,-5.7220458984375E-05,-0.000148773193359375,-0.0046234130859375,0,
00:00:03.096,-1.1444091796875E-05,-0.0001373291015625,-0.00461769104003906,0,
00:00:03.1,-4.00543212890625E-05,-0.000148773193359375,-0.00461769104003906,0,
00:00:03.104,-2.86102294921875E-05,-0.00016021728515625,-0.00461769104003906,0,
00:00:03.108,-6.29425048828125E-05,-0.000154495239257813,-0.00463485717773438,0,
00:00:03.112,-5.7220458984375E-05,-0.000143051147460938,-0.00460052490234375,0,
00:00:03.116,-4.57763671875E-05,-0.000148773193359375,-0.00463485717773438,0,
00:00:03.12,-1.71661376953125E-05,-0.000143051147460938,-0.00462913513183594,0,
00:00:03.124,-4.57763671875E-05,-0.000148773193359375,-0.00461769104003906,0,
00:00:03.128,-5.7220458984375E-05,-0.000154495239257813,-0.00461196899414063,0,
00:00:03.132,-6.29425048828125E-05,-0.000148773193359375,-0.0046234130859375,0,
00:00:03.136,-8.58306884765625E-05,-0.000154495239257813,-0.00459480285644531,0,
00:00:03.14,-2.86102294921875E-05,-0.000154495239257813,-0.00460624694824219,0,
00:00:03.144,-1.1444091796875E-05,-0.000148773193359375,-0.00460624694824219,0,
00:00:03.148,-3.4332275390625E-05,-0.000148773193359375,-0.00463485717773438,0,
00:00:03.152,-2.86102294921875E-05,-0.000148773193359375,-0.00463485717773438,0,
00:00:03.156,-4.00543212890625E-05,-0.000143051147460938,-0.00460624694824219,0,
00:00:03.16,-4.57763671875E-05,-0.000143051147460938,-0.00460624694824219,0,
00:00:03.164,-4.57763671875E-05,-0.0001373291015625,-0.00460052490234375,0,
00:00:03.168,-4.00543212890625E-05,-0.000143051147460938,-0.0046234130859375,0,
00:00:03.172,-6.866455078125E-05,-0.000143051147460938,-0.00460624694824219,0,
00:00:03.176,-4.57763671875E-05,-0.000125885009765625,-0.00458908081054688,0,
00:00:03.18,-4.00543212890625E-05,-0.000125885009765625,-0.00459480285644531,0,
00:00:03.184,-7.43865966796875E-05,-0.000125885009765625,-0.00460624694824219,0,
00:00:03.188,-8.58306884765625E-05,-0.000131607055664063,-0.00461196899414063,0,
00:00:03.192,-3.4332275390625E-05,-0.000131607055664063,-0.0046234130859375,0,
00:00:03.196,-1.1444091796875E-05,-0.000120162963867188,-0.00458908081054688,0,
00:00:03.2,-5.14984130859375E-05,-0.000120162963867188,-0.00460052490234375,0,
00:00:03.204,-4.57763671875E-05,-0.000131607055664063,-0.00457763671875,0,
00:00:03.208,-2.288818359375E-05,-0.000143051147460938,-0.00458908081054688,0,
00:00:03.212,-4.57763671875E-05,-0.000120162963867188,-0.00454902648925781,0,
00:00:03.216,-8.0108642578125E-05,-0.000125885009765625,-0.00459480285644531,0,
00:00:03.22,-5.7220458984375E-05,-0.000131607055664063,-0.00461769104003906,0,
00:00:03.224,-1.71661376953125E-05,-0.000125885009765625,-0.00460624694824219,0,
00:00:03.228,-3.4332275390625E-05,-0.000125885009765625,-0.00458908081054688,0,
00:00:03.232,-6.29425048828125E-05,-0.00011444091796875,-0.00458908081054688,0,
00:00:03.236,-3.4332275390625E-05,-0.000120162963867188,-0.00460052490234375,0,
00:00:03.24,-2.86102294921875E-05,-0.000125885009765625,-0.00455474853515625,0,
00:00:03.244,-3.4332275390625E-05,-0.000120162963867188,-0.00457763671875,0,
00:00:03.248,-5.14984130859375E-05,-0.000125885009765625,-0.00458908081054688,0,
00:00:03.252,-4.57763671875E-05,-0.000120162963867188,-0.00457763671875,0,
00:00:03.256,-5.14984130859375E-05,-0.000120162963867188,-0.00457763671875,0,
00:00:03.26,-6.866455078125E-05,-0.00011444091796875,-0.00460624694824219,0,
00:00:03.264,-4.57763671875E-05,-0.00011444091796875,-0.00460052490234375,0,
00:00:03.268,-4.57763671875E-05,-0.000120162963867188,-0.00458908081054688,0,
00:00:03.272,-4.57763671875E-05,-0.000120162963867188,-0.00456619262695313,0,
00:00:03.276,-4.57763671875E-05,-0.000120162963867188,-0.00461769104003906,0,
00:00:03.28,-7.43865966796875E-05,-0.000125885009765625,-0.00458335876464844,0,
00:00:03.284,-7.43865966796875E-05,-0.000125885009765625,-0.00456047058105469,0,
00:00:03.288,-9.72747802734375E-05,-0.000131607055664063,-0.00456047058105469,0,
00:00:03.292,-0.0001373291015625,-0.000131607055664063,-0.00455474853515625,0,
00:00:03.296,-2.288818359375E-05,-0.000125885009765625,-0.00459480285644531,0,
00:00:03.3,-5.7220458984375E-05,-0.00011444091796875,-0.00458335876464844,0,
00:00:03.304,-0.000120162963867188,-0.000125885009765625,-0.00457763671875,0,
00:00:03.308,-5.7220458984375E-05,-0.000108718872070313,-0.00460052490234375,0,
00:00:03.312,-3.4332275390625E-05,-0.000108718872070313,-0.00458335876464844,0,
00:00:03.316,-6.866455078125E-05,-0.000108718872070313,-0.00456619262695313,0,
00:00:03.32,-9.1552734375E-05,-0.00011444091796875,-0.00455474853515625,0,
00:00:03.324,-5.14984130859375E-05,-0.00011444091796875,-0.00456047058105469,0,
00:00:03.328,-7.43865966796875E-05,-0.000120162963867188,-0.00456047058105469,0,
00:00:03.332,-6.866455078125E-05,-0.000120162963867188,-0.00456047058105469,0,
00:00:03.336,-6.29425048828125E-05,-0.000102996826171875,-0.00457191467285156,0,
00:00:03.34,-5.7220458984375E-05,-9.72747802734375E-05,-0.00457763671875,0,
00:00:03.344,-5.14984130859375E-05,-0.000108718872070313,-0.00454330444335938,0,
00:00:03.348,-7.43865966796875E-05,-0.00011444091796875,-0.00454330444335938,0,
00:00:03.352,-6.29425048828125E-05,-0.00011444091796875,-0.00455474853515625,0,
00:00:03.356,-6.866455078125E-05,-0.000102996826171875,-0.00457191467285156,0,
00:00:03.36,-7.43865966796875E-05,-0.000102996826171875,-0.00456619262695313,0,
00:00:03.364,-7.43865966796875E-05,-0.000108718872070313,-0.00457191467285156,0,
00:00:03.368,-8.58306884765625E-05,-0.00011444091796875,-0.00457763671875,0,
00:00:03.372,-9.72747802734375E-05,-0.00011444091796875,-0.0045318603515625,0,
00:00:03.376,-7.43865966796875E-05,-0.000108718872070313,-0.00452613830566406,0,
00:00:03.38,-8.58306884765625E-05,-0.000108718872070313,-0.00457191467285156,0,
00:00:03.384,-6.29425048828125E-05,-0.000108718872070313,-0.00454330444335938,0,
00:00:03.388,-9.1552734375E-05,-0.00011444091796875,-0.00451469421386719,0,
00:00:03.392,-9.72747802734375E-05,-0.000120162963867188,-0.00451469421386719,0,
00:00:03.396,-8.58306884765625E-05,-0.000108718872070313,-0.00455474853515625,0,
00:00:03.4,-9.72747802734375E-05,-0.00011444091796875,-0.00456047058105469,0,
00:00:03.404,-6.29425048828125E-05,-0.00011444091796875,-0.00454902648925781,0,
00:00:03.408,-4.00543212890625E-05,-0.000102996826171875,-0.00456619262695313,0,
00:00:03.412,-6.866455078125E-05,-0.000102996826171875,-0.00455474853515625,0,
00:00:03.416,-8.58306884765625E-05,-9.1552734375E-05,-0.00455474853515625,0,
00:00:03.42,-6.29425048828125E-05,-0.000102996826171875,-0.00456619262695313,0,
00:00:03.424,-6.29425048828125E-05,-0.000108718872070313,-0.00452613830566406,0,
00:00:03.428,-5.7220458984375E-05,-0.000108718872070313,-0.00449752807617188,0,
00:00:03.432,-5.7220458984375E-05,-0.000102996826171875,-0.00452041625976563,0,
00:00:03.436,-6.29425048828125E-05,-0.000102996826171875,-0.00454902648925781,0,
00:00:03.44,-8.0108642578125E-05,-0.000108718872070313,-0.00453758239746094,0,
00:00:03.444,-9.72747802734375E-05,-9.72747802734375E-05,-0.00454902648925781,0,
00:00:03.448,-7.43865966796875E-05,-9.72747802734375E-05,-0.0045318603515625,0,
00:00:03.452,-9.72747802734375E-05,-0.000108718872070313,-0.00450325012207031,0,
00:00:03.456,-6.866455078125E-05,-0.000102996826171875,-0.00451469421386719,0,
00:00:03.46,-6.866455078125E-05,-9.72747802734375E-05,-0.0045318603515625,0,
00:00:03.464,-0.000108718872070313,-9.72747802734375E-05,-0.00447463989257813,0,
00:00:03.468,-9.1552734375E-05,-9.72747802734375E-05,-0.00452613830566406,0,
00:00:03.472,-6.29425048828125E-05,-0.000102996826171875,-0.00450897216796875,0,
00:00:03.476,-9.72747802734375E-05,-0.000102996826171875,-0.00451469421386719,0,
00:00:03.48,-0.000125885009765625,-9.1552734375E-05,-0.0045318603515625,0,
00:00:03.484,-4.00543212890625E-05,-9.72747802734375E-05,-0.00452613830566406,0,
00:00:03.488,-3.4332275390625E-05,-0.000108718872070313,-0.00452613830566406,0,
00:00:03.492,-6.866455078125E-05,-0.000120162963867188,-0.00451469421386719,0,
00:00:03.496,-6.866455078125E-05,-0.000102996826171875,-0.00450325012207031,0,
00:00:03.5,-6.866455078125E-05,-9.72747802734375E-05,-0.00450897216796875,0,
00:00:03.504,-5.14984130859375E-05,-9.1552734375E-05,-0.00451469421386719,0,
00:00:03.508,-9.72747802734375E-05,-0.000102996826171875,-0.00450897216796875,0,
00:00:03.512,-9.72747802734375E-05,-0.000108718872070313,-0.00451469421386719,0,
00:00:03.516,-8.0108642578125E-05,-9.72747802734375E-05,-0.0045318603515625,0,
00:00:03.52,-6.866455078125E-05,-9.1552734375E-05,-0.00452041625976563,0,
00:00:03.524,-5.7220458984375E-05,-9.1552734375E-05,-0.00446319580078125,0,
00:00:03.528,-6.29425048828125E-05,-9.1552734375E-05,-0.004486083984375,0,
00:00:03.532,-5.7220458984375E-05,-9.72747802734375E-05,-0.00450325012207031,0,
00:00:03.536,-8.0108642578125E-05,-9.72747802734375E-05,-0.00452041625976563,0,
00:00:03.54,-9.72747802734375E-05,-9.1552734375E-05,-0.00449180603027344,0,
00:00:03.544,-8.0108642578125E-05,-9.72747802734375E-05,-0.00447463989257813,0,
00:00:03.548,-6.29425048828125E-05,-9.1552734375E-05,-0.00449180603027344,0,
00:00:03.552,-6.29425048828125E-05,-9.1552734375E-05,-0.00449752807617188,0,
00:00:03.556,-9.1552734375E-05,-8.58306884765625E-05,-0.00447463989257813,0,
00:00:03.56,-9.72747802734375E-05,-9.1552734375E-05,-0.00450325012207031,0,
00:00:03.564,-6.29425048828125E-05,-9.72747802734375E-05,-0.00449752807617188,0,
00:00:03.568,-5.7220458984375E-05,-0.000108718872070313,-0.004486083984375,0,
00:00:03.572,-6.866455078125E-05,-9.72747802734375E-05,-0.00448036193847656,0,
00:00:03.576,-7.43865966796875E-05,-9.72747802734375E-05,-0.00448036193847656,0,
00:00:03.58,-0.000102996826171875,-9.72747802734375E-05,-0.00446891784667969,0,
00:00:03.584,-0.000165939331054688,-0.000108718872070313,-0.00447463989257813,0,
00:00:03.588,-9.72747802734375E-05,-9.72747802734375E-05,-0.00449180603027344,0,
00:00:03.592,-2.288818359375E-05,-8.58306884765625E-05,-0.00452613830566406,0,
00:00:03.596,-5.14984130859375E-05,-9.1552734375E-05,-0.00450325012207031,0,
00:00:03.6,-8.0108642578125E-05,-0.000108718872070313,-0.00445175170898438,0,
00:00:03.604,-8.0108642578125E-05,-0.000102996826171875,-0.00442314147949219,0,
00:00:03.608,-6.29425048828125E-05,-9.72747802734375E-05,-0.00445175170898438,0,
00:00:03.612,-7.43865966796875E-05,-9.72747802734375E-05,-0.00445175170898438,0,
00:00:03.616,-6.29425048828125E-05,-9.1552734375E-05,-0.00447463989257813,0,
00:00:03.62,-0.000102996826171875,-9.1552734375E-05,-0.004486083984375,0,
00:00:03.624,-0.000125885009765625,-9.72747802734375E-05,-0.00446891784667969,0,
00:00:03.628,-5.7220458984375E-05,-8.58306884765625E-05,-0.00448036193847656,0,
00:00:03.632,-7.43865966796875E-05,-8.58306884765625E-05,-0.00448036193847656,0,
00:00:03.636,-7.43865966796875E-05,-9.72747802734375E-05,-0.00449180603027344,0,
00:00:03.64,-6.866455078125E-05,-9.1552734375E-05,-0.00445175170898438,0,
00:00:03.644,-8.0108642578125E-05,-9.72747802734375E-05,-0.00443458557128906,0,
00:00:03.648,-9.1552734375E-05,-9.72747802734375E-05,-0.00443458557128906,0,
00:00:03.652,-8.0108642578125E-05,-9.1552734375E-05,-0.0044403076171875,0,
00:00:03.656,-6.29425048828125E-05,-9.1552734375E-05,-0.004486083984375,0,
00:00:03.66,-8.58306884765625E-05,-9.72747802734375E-05,-0.00446319580078125,0,
00:00:03.664,-9.72747802734375E-05,-9.1552734375E-05,-0.00441169738769531,0,
00:00:03.668,-9.72747802734375E-05,-8.58306884765625E-05,-0.0044403076171875,0,
00:00:03.672,-7.43865966796875E-05,-9.1552734375E-05,-0.00443458557128906,0,
00:00:03.676,-9.72747802734375E-05,-9.1552734375E-05,-0.00444602966308594,0,
00:00:03.68,-0.000108718872070313,-8.0108642578125E-05,-0.00444602966308594,0,
00:00:03.684,-4.57763671875E-05,-8.0108642578125E-05,-0.00445175170898438,0,
00:00:03.688,-8.0108642578125E-05,-8.0108642578125E-05,-0.00445175170898438,0,
00:00:03.692,-8.58306884765625E-05,-8.58306884765625E-05,-0.00445747375488281,0,
00:00:03.696,-8.58306884765625E-05,-8.0108642578125E-05,-0.00444602966308594,0,
00:00:03.7,-0.000102996826171875,-8.0108642578125E-05,-0.00443458557128906,0,
00:00:03.704,-7.43865966796875E-05,-7.43865966796875E-05,-0.0044403076171875,0,
00:00:03.708,-5.7220458984375E-05,-8.58306884765625E-05,-0.0044403076171875,0,
00:00:03.712,-7.43865966796875E-05,-9.1552734375E-05,-0.00441741943359375,0,
00:00:03.716,-8.0108642578125E-05,-9.1552734375E-05,-0.00441169738769531,0,
00:00:03.72,-8.58306884765625E-05,-8.0108642578125E-05,-0.0044403076171875,0,
00:00:03.724,-8.58306884765625E-05,-8.0108642578125E-05,-0.00444602966308594,0,
00:00:03.728,-0.00011444091796875,-8.0108642578125E-05,-0.00444602966308594,0,
00:00:03.732,-0.000125885009765625,-8.58306884765625E-05,-0.00444602966308594,0,
00:00:03.736,-5.14984130859375E-05,-9.72747802734375E-05,-0.00441741943359375,0,
00:00:03.74,-7.43865966796875E-05,-9.72747802734375E-05,-0.00442314147949219,0,
00:00:03.744,-9.72747802734375E-05,-0.000102996826171875,-0.00441169738769531,0,
00:00:03.748,-9.72747802734375E-05,-9.1552734375E-05,-0.00440025329589844,0,
00:00:03.752,-8.58306884765625E-05,-8.58306884765625E-05,-0.00439453125,0,
00:00:03.756,-6.866455078125E-05,-8.58306884765625E-05,-0.00441169738769531,0,
00:00:03.76,-9.1552734375E-05,-8.0108642578125E-05,-0.00442886352539063,0,
00:00:03.764,-0.00011444091796875,-9.72747802734375E-05,-0.00441169738769531,0,
00:00:03.768,-0.000102996826171875,-9.1552734375E-05,-0.00441741943359375,0,
00:00:03.772,-6.866455078125E-05,-9.72747802734375E-05,-0.00439453125,0,
00:00:03.776,-6.866455078125E-05,-8.58306884765625E-05,-0.00438308715820313,0,
00:00:03.78,-6.29425048828125E-05,-8.0108642578125E-05,-0.00440597534179688,0,
00:00:03.784,-0.000108718872070313,-8.58306884765625E-05,-0.00439453125,0,
00:00:03.788,-8.0108642578125E-05,-8.0108642578125E-05,-0.0044403076171875,0,
00:00:03.792,-6.866455078125E-05,-7.43865966796875E-05,-0.00438880920410156,0,
00:00:03.796,-8.0108642578125E-05,-7.43865966796875E-05,-0.00440597534179688,0,
00:00:03.8,-0.000125885009765625,-8.58306884765625E-05,-0.00443458557128906,0,
00:00:03.804,-0.000102996826171875,-8.58306884765625E-05,-0.00440597534179688,0,
00:00:03.808,-6.29425048828125E-05,-8.0108642578125E-05,-0.00438308715820313,0,
00:00:03.812,-8.0108642578125E-05,-7.43865966796875E-05,-0.00437736511230469,0,
00:00:03.816,-9.1552734375E-05,-7.43865966796875E-05,-0.00438308715820313,0,
00:00:03.82,-0.00011444091796875,-6.866455078125E-05,-0.00440025329589844,0,
00:00:03.824,-0.000131607055664063,-7.43865966796875E-05,-0.00440597534179688,0,
00:00:03.828,-6.866455078125E-05,-8.0108642578125E-05,-0.00438308715820313,0,
00:00:03.832,-0.000120162963867188,-7.43865966796875E-05,-0.00440597534179688,0,
00:00:03.836,-0.000154495239257813,-8.0108642578125E-05,-0.00439453125,0,
00:00:03.84,-4.57763671875E-05,-6.866455078125E-05,-0.00438880920410156,0,
00:00:03.844,-7.43865966796875E-05,-7.43865966796875E-05,-0.00439453125,0,
00:00:03.848,-8.0108642578125E-05,-6.866455078125E-05,-0.00440025329589844,0,
00:00:03.852,-9.1552734375E-05,-7.43865966796875E-05,-0.00440025329589844,0,
00:00:03.856,-9.1552734375E-05,-8.58306884765625E-05,-0.00437736511230469,0,
00:00:03.86,-0.000120162963867188,-8.58306884765625E-05,-0.00437736511230469,0,
00:00:03.864,-0.000102996826171875,-8.0108642578125E-05,-0.00437164306640625,0,
00:00:03.868,-9.1552734375E-05,-7.43865966796875E-05,-0.00439453125,0,
00:00:03.872,-0.00011444091796875,-8.0108642578125E-05,-0.00438308715820313,0,
00:00:03.876,-8.58306884765625E-05,-7.43865966796875E-05,-0.00438308715820313,0,
00:00:03.88,-9.1552734375E-05,-8.0108642578125E-05,-0.00437736511230469,0,
00:00:03.884,-0.00011444091796875,-8.0108642578125E-05,-0.00437164306640625,0,
00:00:03.888,-0.000143051147460938,-9.1552734375E-05,-0.00437736511230469,0,
00:00:03.892,-0.000120162963867188,-8.0108642578125E-05,-0.0043487548828125,0,
00:00:03.896,-0.000125885009765625,-7.43865966796875E-05,-0.0043487548828125,0,
00:00:03.9,-0.000120162963867188,-7.43865966796875E-05,-0.00438880920410156,0,
00:00:03.904,-0.0001373291015625,-9.1552734375E-05,-0.00437164306640625,0,
00:00:03.908,-0.000108718872070313,-6.866455078125E-05,-0.00439453125,0,
00:00:03.912,-0.000120162963867188,-7.43865966796875E-05,-0.00436592102050781,0,
00:00:03.916,-0.000125885009765625,-6.866455078125E-05,-0.0043487548828125,0,
00:00:03.92,-5.14984130859375E-05,-7.43865966796875E-05,-0.00437736511230469,0,
00:00:03.924,-0.000108718872070313,-8.0108642578125E-05,-0.00437164306640625,0,
00:00:03.928,-6.866455078125E-05,-7.43865966796875E-05,-0.00436592102050781,0,
00:00:03.932,-7.43865966796875E-05,-8.0108642578125E-05,-0.00436019897460938,0,
00:00:03.936,-0.00011444091796875,-7.43865966796875E-05,-0.0043487548828125,0,
00:00:03.94,-0.00011444091796875,-7.43865966796875E-05,-0.00434303283691406,0,
00:00:03.944,-0.00011444091796875,-7.43865966796875E-05,-0.00436019897460938,0,
00:00:03.948,-0.00011444091796875,-8.58306884765625E-05,-0.00435447692871094,0,
00:00:03.952,-9.1552734375E-05,-7.43865966796875E-05,-0.00434303283691406,0,
00:00:03.956,-0.000102996826171875,-7.43865966796875E-05,-0.00435447692871094,0,
00:00:03.96,-0.000125885009765625,-8.0108642578125E-05,-0.0043487548828125,0,
00:00:03.964,-0.000108718872070313,-8.0108642578125E-05,-0.00434303283691406,0,
00:00:03.968,-0.00011444091796875,-8.0108642578125E-05,-0.00436019897460938,0,
00:00:03.972,-0.000108718872070313,-8.0108642578125E-05,-0.00435447692871094,0,
00:00:03.976,-9.1552734375E-05,-7.43865966796875E-05,-0.00435447692871094,0,
00:00:03.98,-0.000171661376953125,-8.58306884765625E-05,-0.00433731079101563,0,
00:00:03.984,-0.0001373291015625,-8.58306884765625E-05,-0.00434303283691406,0,
00:00:03.988,-0.00011444091796875,-8.0108642578125E-05,-0.00436019897460938,0,
00:00:03.992,-9.72747802734375E-05,-8.0108642578125E-05,-0.00431442260742188,0,
00:00:03.996,-9.1552734375E-05,-8.0108642578125E-05,-0.00431442260742188,0,
00:00:04,-0.000171661376953125,-8.58306884765625E-05,-0.00433158874511719,0,
00:00:04.004,-0.000188827514648438,-9.1552734375E-05,-0.00433158874511719,0,
00:00:04.008,-5.14984130859375E-05,-8.0108642578125E-05,-0.00433158874511719,0,
00:00:04.012,-9.72747802734375E-05,-8.58306884765625E-05,-0.00435447692871094,0,
00:00:04.016,-0.000108718872070313,-8.0108642578125E-05,-0.00434303283691406,0,
00:00:04.02,-0.000102996826171875,-8.58306884765625E-05,-0.00432014465332031,0,
00:00:04.024,-0.000108718872070313,-9.1552734375E-05,-0.00432586669921875,0,
00:00:04.028,-0.00011444091796875,-9.1552734375E-05,-0.00432586669921875,0,
00:00:04.032,-0.00011444091796875,-8.58306884765625E-05,-0.00433158874511719,0,
00:00:04.036,-0.000125885009765625,-8.58306884765625E-05,-0.00433731079101563,0,
00:00:04.04,-0.000131607055664063,-9.72747802734375E-05,-0.004302978515625,0,
00:00:04.044,-0.000148773193359375,-9.1552734375E-05,-0.00428581237792969,0,
00:00:04.048,-0.0001373291015625,-8.58306884765625E-05,-0.004302978515625,0,
00:00:04.052,-0.000131607055664063,-9.1552734375E-05,-0.00433158874511719,0,
00:00:04.056,-0.000131607055664063,-9.1552734375E-05,-0.00430870056152344,0,
00:00:04.06,-9.72747802734375E-05,-8.58306884765625E-05,-0.004302978515625,0,
00:00:04.064,-0.00011444091796875,-8.58306884765625E-05,-0.00431442260742188,0,
00:00:04.068,-0.000148773193359375,-9.1552734375E-05,-0.00431442260742188,0,
00:00:04.072,-0.000125885009765625,-9.1552734375E-05,-0.00428581237792969,0,
00:00:04.076,-0.000143051147460938,-9.1552734375E-05,-0.00429153442382813,0,
00:00:04.08,-0.000154495239257813,-0.000102996826171875,-0.00430870056152344,0,
00:00:04.084,-0.000148773193359375,-9.72747802734375E-05,-0.004302978515625,0,
00:00:04.088,-0.000171661376953125,-9.72747802734375E-05,-0.00428009033203125,0,
00:00:04.092,-0.000154495239257813,-9.72747802734375E-05,-0.00428581237792969,0,
00:00:04.096,-0.000125885009765625,-9.72747802734375E-05,-0.00429725646972656,0,
00:00:04.1,-0.00011444091796875,-8.58306884765625E-05,-0.00431442260742188,0,
00:00:04.104,-0.000154495239257813,-9.1552734375E-05,-0.00430870056152344,0,
00:00:04.108,-0.000188827514648438,-9.1552734375E-05,-0.00428581237792969,0,
00:00:04.112,-0.000148773193359375,-9.1552734375E-05,-0.00427436828613281,0,
00:00:04.116,-0.000125885009765625,-9.1552734375E-05,-0.004302978515625,0,
00:00:04.12,-0.000143051147460938,-9.1552734375E-05,-0.00432586669921875,0,
00:00:04.124,-0.000125885009765625,-0.000102996826171875,-0.00426864624023438,0,
00:00:04.128,-0.000125885009765625,-9.72747802734375E-05,-0.00427436828613281,0,
00:00:04.132,-0.00016021728515625,-0.000102996826171875,-0.00433158874511719,0,
00:00:04.136,-0.00016021728515625,-0.000102996826171875,-0.00426292419433594,0,
00:00:04.14,-0.000177383422851563,-9.72747802734375E-05,-0.00424575805664063,0,
00:00:04.144,-0.0001373291015625,-9.72747802734375E-05,-0.0042572021484375,0,
00:00:04.148,-0.00011444091796875,-0.000102996826171875,-0.00426864624023438,0,
00:00:04.152,-0.0001373291015625,-0.000102996826171875,-0.00428009033203125,0,
00:00:04.156,-0.000154495239257813,-0.000108718872070313,-0.0042572021484375,0,
00:00:04.16,-0.000148773193359375,-0.000102996826171875,-0.00426864624023438,0,
00:00:04.164,-0.000154495239257813,-0.000102996826171875,-0.00426292419433594,0,
00:00:04.168,-0.000148773193359375,-0.00011444091796875,-0.00426292419433594,0,
00:00:04.172,-0.000200271606445313,-0.000120162963867188,-0.00424003601074219,0,
00:00:04.176,-0.00016021728515625,-0.00011444091796875,-0.00425148010253906,0,
00:00:04.18,-0.000143051147460938,-0.000108718872070313,-0.00428009033203125,0,
00:00:04.184,-0.000143051147460938,-0.000108718872070313,-0.00426292419433594,0,
00:00:04.188,-0.00016021728515625,-0.000108718872070313,-0.00427436828613281,0,
00:00:04.192,-0.00016021728515625,-0.00011444091796875,-0.0042572021484375,0,
00:00:04.196,-0.000171661376953125,-0.000120162963867188,-0.00424575805664063,0,
00:00:04.2,-0.00018310546875,-0.000120162963867188,-0.00426864624023438,0,
00:00:04.204,-0.000194549560546875,-0.00011444091796875,-0.00426292419433594,0,
00:00:04.208,-0.000125885009765625,-0.00011444091796875,-0.00426292419433594,0,
00:00:04.212,-0.000171661376953125,-0.00011444091796875,-0.00426292419433594,0,
00:00:04.216,-0.000188827514648438,-0.000108718872070313,-0.00427436828613281,0,
00:00:04.22,-0.00016021728515625,-0.00011444091796875,-0.00424003601074219,0,
00:00:04.224,-0.00018310546875,-0.00011444091796875,-0.00422859191894531,0,
00:00:04.228,-0.000148773193359375,-0.000120162963867188,-0.00424575805664063,0,
00:00:04.232,-0.000177383422851563,-0.000125885009765625,-0.00424575805664063,0,
00:00:04.236,-0.000165939331054688,-0.000125885009765625,-0.00425148010253906,0,
00:00:04.24,-0.000171661376953125,-0.000131607055664063,-0.00422859191894531,0,
00:00:04.244,-0.000171661376953125,-0.000125885009765625,-0.00421142578125,0,
00:00:04.248,-0.00018310546875,-0.000143051147460938,-0.0042572021484375,0,
00:00:04.252,-0.00016021728515625,-0.000131607055664063,-0.00426292419433594,0,
00:00:04.256,-0.00018310546875,-0.000143051147460938,-0.00420570373535156,0,
00:00:04.26,-0.000177383422851563,-0.000143051147460938,-0.00420570373535156,0,
00:00:04.264,-0.000171661376953125,-0.000143051147460938,-0.00424003601074219,0,
00:00:04.268,-0.00018310546875,-0.000148773193359375,-0.0042572021484375,0,
00:00:04.272,-0.000171661376953125,-0.000143051147460938,-0.00425148010253906,0,
00:00:04.276,-0.000194549560546875,-0.000148773193359375,-0.0042572021484375,0,
00:00:04.28,-0.000188827514648438,-0.000143051147460938,-0.00422859191894531,0,
00:00:04.284,-0.000177383422851563,-0.0001373291015625,-0.00422286987304688,0,
00:00:04.288,-0.00018310546875,-0.000143051147460938,-0.00423431396484375,0,
00:00:04.292,-0.000188827514648438,-0.000148773193359375,-0.00423431396484375,0,
00:00:04.296,-0.000177383422851563,-0.00016021728515625,-0.00424003601074219,0,
00:00:04.3,-0.000177383422851563,-0.000148773193359375,-0.00424575805664063,0,
00:00:04.304,-0.000177383422851563,-0.0001373291015625,-0.00425148010253906,0,
00:00:04.308,-0.000171661376953125,-0.000148773193359375,-0.00424575805664063,0,
00:00:04.312,-0.000194549560546875,-0.000148773193359375,-0.00428009033203125,0,
00:00:04.316,-0.000194549560546875,-0.000165939331054688,-0.00424003601074219,0,
00:00:04.32,-0.000194549560546875,-0.000165939331054688,-0.00422286987304688,0,
00:00:04.324,-0.00018310546875,-0.000171661376953125,-0.00424003601074219,0,
00:00:04.328,-0.000188827514648438,-0.000165939331054688,-0.00422286987304688,0,
00:00:04.332,-0.000217437744140625,-0.000177383422851563,-0.00419425964355469,0,
00:00:04.336,-0.000154495239257813,-0.000171661376953125,-0.00421714782714844,0,
00:00:04.34,-0.000165939331054688,-0.000165939331054688,-0.00424003601074219,0,
00:00:04.344,-0.000171661376953125,-0.00016021728515625,-0.00427436828613281,0,
00:00:04.348,-0.000223159790039063,-0.000177383422851563,-0.00422286987304688,0,
00:00:04.352,-0.000177383422851563,-0.000171661376953125,-0.00422286987304688,0,
00:00:04.356,-0.000194549560546875,-0.000177383422851563,-0.00422859191894531,0,
00:00:04.36,-0.000165939331054688,-0.000171661376953125,-0.00425148010253906,0,
00:00:04.364,-0.000143051147460938,-0.000177383422851563,-0.00424575805664063,0,
00:00:04.368,-0.00016021728515625,-0.00018310546875,-0.00424575805664063,0,
00:00:04.372,-0.000171661376953125,-0.000177383422851563,-0.00424575805664063,0,
00:00:04.376,-0.000188827514648438,-0.000177383422851563,-0.00426864624023438,0,
00:00:04.38,-0.000188827514648438,-0.000177383422851563,-0.00427436828613281,0,
00:00:04.384,-0.000165939331054688,-0.000177383422851563,-0.00426292419433594,0,
00:00:04.388,-0.00016021728515625,-0.000177383422851563,-0.0042572021484375,0,
00:00:04.392,-0.000165939331054688,-0.000194549560546875,-0.00425148010253906,0,
00:00:04.396,-0.00020599365234375,-0.000188827514648438,-0.00424575805664063,0,
00:00:04.4,-0.00020599365234375,-0.000188827514648438,-0.00423431396484375,0,
00:00:04.404,-0.000177383422851563,-0.000188827514648438,-0.00424575805664063,0,
00:00:04.408,-0.000217437744140625,-0.00020599365234375,-0.00428009033203125,0,
00:00:04.412,-0.000188827514648438,-0.000200271606445313,-0.0042572021484375,0,
00:00:04.416,-0.00018310546875,-0.000200271606445313,-0.00424575805664063,0,
00:00:04.42,-0.000148773193359375,-0.000200271606445313,-0.00424003601074219,0,
00:00:04.424,-0.000154495239257813,-0.00020599365234375,-0.00427436828613281,0,
00:00:04.428,-0.000165939331054688,-0.00020599365234375,-0.00426292419433594,0,
00:00:04.432,-0.00018310546875,-0.00020599365234375,-0.00428009033203125,0,
00:00:04.436,-0.00018310546875,-0.000211715698242188,-0.00425148010253906,0,
00:00:04.44,-0.000177383422851563,-0.000211715698242188,-0.00427436828613281,0,
00:00:04.444,-0.00018310546875,-0.000211715698242188,-0.00427436828613281,0,
00:00:04.448,-0.000171661376953125,-0.000217437744140625,-0.00426864624023438,0,
00:00:04.452,-0.000177383422851563,-0.000223159790039063,-0.00429153442382813,0,
00:00:04.456,-0.000194549560546875,-0.000223159790039063,-0.00428009033203125,0,
00:00:04.46,-0.000171661376953125,-0.000217437744140625,-0.00429725646972656,0,
00:00:04.464,-0.000200271606445313,-0.000223159790039063,-0.00428581237792969,0,
00:00:04.468,-0.000211715698242188,-0.0002288818359375,-0.00429725646972656,0,
00:00:04.472,-0.000165939331054688,-0.000223159790039063,-0.00429725646972656,0,
00:00:04.476,-0.000148773193359375,-0.000217437744140625,-0.00426292419433594,0,
00:00:04.48,-0.000165939331054688,-0.000217437744140625,-0.00429725646972656,0,
00:00:04.484,-0.000234603881835938,-0.0002288818359375,-0.004302978515625,0,
00:00:04.488,-0.000211715698242188,-0.000234603881835938,-0.00429725646972656,0,
00:00:04.492,-0.000120162963867188,-0.000223159790039063,-0.00433158874511719,0,
00:00:04.496,-0.0001373291015625,-0.0002288818359375,-0.00430870056152344,0,
00:00:04.5,-0.000148773193359375,-0.000223159790039063,-0.00429725646972656,0,
00:00:04.504,-0.000143051147460938,-0.000234603881835938,-0.004302978515625,0,
00:00:04.508,-0.000171661376953125,-0.000234603881835938,-0.00433158874511719,0,
00:00:04.512,-0.00016021728515625,-0.000223159790039063,-0.00433158874511719,0,
00:00:04.516,-0.000154495239257813,-0.0002288818359375,-0.00431442260742188,0,
00:00:04.52,-0.000177383422851563,-0.000240325927734375,-0.00432586669921875,0,
00:00:04.524,-0.000148773193359375,-0.000234603881835938,-0.00431442260742188,0,
00:00:04.528,-0.000194549560546875,-0.000240325927734375,-0.00430870056152344,0,
00:00:04.532,-0.00016021728515625,-0.000240325927734375,-0.00435447692871094,0,
00:00:04.536,-0.000131607055664063,-0.000240325927734375,-0.00437736511230469,0,
00:00:04.54,-0.00016021728515625,-0.000240325927734375,-0.00437736511230469,0,
00:00:04.544,-0.00016021728515625,-0.00025177001953125,-0.00436592102050781,0,
00:00:04.548,-0.000148773193359375,-0.000257492065429688,-0.00437164306640625,0,
00:00:04.552,-0.000165939331054688,-0.00025177001953125,-0.00436592102050781,0,
00:00:04.556,-0.000154495239257813,-0.00025177001953125,-0.00440025329589844,0,
00:00:04.56,-0.00016021728515625,-0.00025177001953125,-0.00440597534179688,0,
00:00:04.564,-0.000177383422851563,-0.000257492065429688,-0.00441741943359375,0,
00:00:04.568,-0.000148773193359375,-0.00025177001953125,-0.00439453125,0,
00:00:04.572,-0.000171661376953125,-0.000257492065429688,-0.00437736511230469,0,
00:00:04.576,-0.000194549560546875,-0.00025177001953125,-0.00438880920410156,0,
00:00:04.58,-0.00018310546875,-0.000246047973632813,-0.00440025329589844,0,
00:00:04.584,-0.00016021728515625,-0.000246047973632813,-0.00446319580078125,0,
00:00:04.588,-0.00016021728515625,-0.000263214111328125,-0.00442886352539063,0,
00:00:04.592,-0.000131607055664063,-0.000257492065429688,-0.00442314147949219,0,
00:00:04.596,-0.000131607055664063,-0.00025177001953125,-0.00443458557128906,0,
00:00:04.6,-0.00011444091796875,-0.000263214111328125,-0.004486083984375,0,
00:00:04.604,-0.000120162963867188,-0.000257492065429688,-0.00445175170898438,0,
00:00:04.608,-0.000131607055664063,-0.000268936157226563,-0.00446319580078125,0,
00:00:04.612,-0.000143051147460938,-0.000263214111328125,-0.00449180603027344,0,
00:00:04.616,-0.0001373291015625,-0.000263214111328125,-0.00449752807617188,0,
00:00:04.62,-0.00011444091796875,-0.000263214111328125,-0.00450325012207031,0,
00:00:04.624,-0.000125885009765625,-0.000263214111328125,-0.004486083984375,0,
00:00:04.628,-0.000154495239257813,-0.000268936157226563,-0.00450325012207031,0,
00:00:04.632,-0.000125885009765625,-0.000263214111328125,-0.00454330444335938,0,
00:00:04.636,-0.00011444091796875,-0.000257492065429688,-0.00453758239746094,0,
00:00:04.64,-0.000131607055664063,-0.000263214111328125,-0.00454902648925781,0,
00:00:04.644,-0.0001373291015625,-0.000268936157226563,-0.00456619262695313,0,
00:00:04.648,-0.000131607055664063,-0.000263214111328125,-0.00457191467285156,0,
00:00:04.652,-0.000120162963867188,-0.000263214111328125,-0.00457763671875,0,
00:00:04.656,-0.000177383422851563,-0.000268936157226563,-0.00458335876464844,0,
00:00:04.66,-0.000171661376953125,-0.000268936157226563,-0.00456619262695313,0,
00:00:04.664,-8.58306884765625E-05,-0.000263214111328125,-0.00460624694824219,0,
00:00:04.668,-9.72747802734375E-05,-0.000274658203125,-0.00460624694824219,0,
00:00:04.672,-0.000120162963867188,-0.000280380249023438,-0.00460624694824219,0,
00:00:04.676,-6.866455078125E-05,-0.000257492065429688,-0.004669189453125,0,
00:00:04.68,-0.000102996826171875,-0.000257492065429688,-0.00465774536132813,0,
00:00:04.684,-0.000102996826171875,-0.000274658203125,-0.00468635559082031,0,
00:00:04.688,-6.866455078125E-05,-0.000268936157226563,-0.00465774536132813,0,
00:00:04.692,-8.58306884765625E-05,-0.000274658203125,-0.00465774536132813,0,
00:00:04.696,-9.72747802734375E-05,-0.000280380249023438,-0.00467491149902344,0,
00:00:04.7,-9.72747802734375E-05,-0.000274658203125,-0.00470352172851563,0,
00:00:04.704,-8.58306884765625E-05,-0.000268936157226563,-0.00472640991210938,0,
00:00:04.708,-8.0108642578125E-05,-0.000263214111328125,-0.00472068786621094,0,
00:00:04.712,-8.58306884765625E-05,-0.000268936157226563,-0.00474929809570313,0,
00:00:04.716,-7.43865966796875E-05,-0.000274658203125,-0.0047607421875,0,
00:00:04.72,-8.0108642578125E-05,-0.000268936157226563,-0.00477790832519531,0,
00:00:04.724,-9.1552734375E-05,-0.000268936157226563,-0.00480079650878906,0,
00:00:04.728,-8.0108642578125E-05,-0.000286102294921875,-0.00481796264648438,0,
00:00:04.732,-8.58306884765625E-05,-0.000291824340820313,-0.00478363037109375,0,
00:00:04.736,-8.58306884765625E-05,-0.000280380249023438,-0.00481796264648438,0,
00:00:04.74,-8.58306884765625E-05,-0.000280380249023438,-0.00482368469238281,0,
00:00:04.744,-8.58306884765625E-05,-0.000274658203125,-0.00484085083007813,0,
00:00:04.748,-0.0001373291015625,-0.000280380249023438,-0.00488090515136719,0,
00:00:04.752,-0.00011444091796875,-0.000274658203125,-0.00488662719726563,0,
00:00:04.756,-8.0108642578125E-05,-0.000280380249023438,-0.00490951538085938,0,
00:00:04.76,-2.86102294921875E-05,-0.000280380249023438,-0.00494384765625,0,
00:00:04.764,-2.288818359375E-05,-0.000286102294921875,-0.00493240356445313,0,
00:00:04.768,-5.7220458984375E-05,-0.000286102294921875,-0.00491523742675781,0,
00:00:04.772,-5.14984130859375E-05,-0.000280380249023438,-0.00493240356445313,0,
00:00:04.776,-8.0108642578125E-05,-0.000291824340820313,-0.0049896240234375,0,
00:00:04.78,-5.14984130859375E-05,-0.000286102294921875,-0.00501251220703125,0,
00:00:04.784,-4.57763671875E-05,-0.000286102294921875,-0.00500679016113281,0,
00:00:04.788,-6.29425048828125E-05,-0.000303268432617188,-0.0049896240234375,0,
00:00:04.792,-5.14984130859375E-05,-0.000291824340820313,-0.00502395629882813,0,
00:00:04.796,-4.00543212890625E-05,-0.000286102294921875,-0.00506973266601563,0,
00:00:04.8,-5.14984130859375E-05,-0.00029754638671875,-0.00506401062011719,0,
00:00:04.804,-4.57763671875E-05,-0.00029754638671875,-0.00507545471191406,0,
00:00:04.808,-4.00543212890625E-05,-0.000291824340820313,-0.00510406494140625,0,
00:00:04.812,-2.86102294921875E-05,-0.000286102294921875,-0.00511550903320313,0,
00:00:04.816,-2.86102294921875E-05,-0.000291824340820313,-0.00514411926269531,0,
00:00:04.82,-2.288818359375E-05,-0.000291824340820313,-0.00516700744628906,0,
00:00:04.824,-4.00543212890625E-05,-0.000291824340820313,-0.0051727294921875,0,
00:00:04.828,-3.4332275390625E-05,-0.000291824340820313,-0.00517845153808594,0,
00:00:04.832,-4.57763671875E-05,-0.00029754638671875,-0.00519561767578125,0,
00:00:04.836,0,-0.000303268432617188,-0.00520706176757813,0,
00:00:04.84,5.7220458984375E-06,-0.00029754638671875,-0.00522422790527344,0,
00:00:04.844,-2.86102294921875E-05,-0.000280380249023438,-0.00525856018066406,0,
00:00:04.848,-1.71661376953125E-05,-0.000286102294921875,-0.00525856018066406,0,
00:00:04.852,-2.288818359375E-05,-0.00029754638671875,-0.00527572631835938,0,
00:00:04.856,-2.86102294921875E-05,-0.000291824340820313,-0.00532150268554688,0,
00:00:04.86,1.71661376953125E-05,-0.000280380249023438,-0.00534439086914063,0,
00:00:04.864,5.7220458984375E-06,-0.000280380249023438,-0.00532150268554688,0,
00:00:04.868,-1.71661376953125E-05,-0.000286102294921875,-0.00533294677734375,0,
00:00:04.872,-5.7220458984375E-06,-0.000286102294921875,-0.00537300109863281,0,
00:00:04.876,-1.71661376953125E-05,-0.000286102294921875,-0.00539016723632813,0,
00:00:04.88,3.4332275390625E-05,-0.000286102294921875,-0.00538444519042969,0,
00:00:04.884,1.1444091796875E-05,-0.000286102294921875,-0.00542449951171875,0,
00:00:04.888,1.71661376953125E-05,-0.000286102294921875,-0.00541877746582031,0,
00:00:04.892,-5.7220458984375E-06,-0.000286102294921875,-0.00544166564941406,0,
00:00:04.896,-1.1444091796875E-05,-0.000291824340820313,-0.0054473876953125,0,
00:00:04.9,1.71661376953125E-05,-0.000280380249023438,-0.0054931640625,0,
00:00:04.904,1.1444091796875E-05,-0.000286102294921875,-0.00550460815429688,0,
00:00:04.908,3.4332275390625E-05,-0.000291824340820313,-0.0054931640625,0,
00:00:04.912,4.00543212890625E-05,-0.000291824340820313,-0.00551033020019531,0,
00:00:04.916,2.86102294921875E-05,-0.000291824340820313,-0.00555610656738281,0,
00:00:04.92,4.00543212890625E-05,-0.000291824340820313,-0.00557899475097656,0,
00:00:04.924,4.00543212890625E-05,-0.000303268432617188,-0.00560760498046875,0,
00:00:04.928,1.71661376953125E-05,-0.00029754638671875,-0.00561332702636719,0,
00:00:04.932,5.7220458984375E-05,-0.000280380249023438,-0.00564193725585938,0,
00:00:04.936,4.57763671875E-05,-0.000286102294921875,-0.00565338134765625,0,
00:00:04.94,4.57763671875E-05,-0.000286102294921875,-0.00566482543945313,0,
00:00:04.944,7.43865966796875E-05,-0.000286102294921875,-0.00570487976074219,0,
00:00:04.948,4.57763671875E-05,-0.000291824340820313,-0.00571060180664063,0,
00:00:04.952,3.4332275390625E-05,-0.000303268432617188,-0.00571632385253906,0,
00:00:04.956,5.7220458984375E-05,-0.00029754638671875,-0.00573348999023438,0,
00:00:04.96,6.29425048828125E-05,-0.00029754638671875,-0.005767822265625,0,
00:00:04.964,6.866455078125E-05,-0.00029754638671875,-0.00577354431152344,0,
00:00:04.968,4.00543212890625E-05,-0.00029754638671875,-0.005767822265625,0,
00:00:04.972,6.29425048828125E-05,-0.000303268432617188,-0.00580215454101563,0,
00:00:04.976,9.1552734375E-05,-0.000303268432617188,-0.00584220886230469,0,
00:00:04.98,7.43865966796875E-05,-0.000303268432617188,-0.00588798522949219,0,
00:00:04.984,9.1552734375E-05,-0.000303268432617188,-0.00584793090820313,0,
00:00:04.988,8.0108642578125E-05,-0.000303268432617188,-0.005859375,0,
00:00:04.992,8.0108642578125E-05,-0.00029754638671875,-0.00588798522949219,0,
00:00:04.996,8.0108642578125E-05,-0.00029754638671875,-0.00592231750488281,0,
00:00:05,8.0108642578125E-05,-0.00029754638671875,-0.00592803955078125,0,
00:00:05.004,7.43865966796875E-05,-0.000303268432617188,-0.005950927734375,0,
00:00:05.008,8.0108642578125E-05,-0.00029754638671875,-0.00595664978027344,0,
00:00:05.012,8.58306884765625E-05,-0.000303268432617188,-0.00596809387207031,0,
00:00:05.016,0.000120162963867188,-0.000286102294921875,-0.00601387023925781,0,
00:00:05.02,7.43865966796875E-05,-0.00029754638671875,-0.00599098205566406,0,
00:00:05.024,9.1552734375E-05,-0.00029754638671875,-0.00601959228515625,0,
00:00:05.028,0.000102996826171875,-0.000291824340820313,-0.00606536865234375,0,
00:00:05.032,9.1552734375E-05,-0.00029754638671875,-0.00607681274414063,0,
00:00:05.036,0.000108718872070313,-0.00029754638671875,-0.00609970092773438,0,
00:00:05.04,0.000102996826171875,-0.000303268432617188,-0.00614547729492188,0,
00:00:05.044,0.000125885009765625,-0.000291824340820313,-0.00615692138671875,0,
00:00:05.048,0.000102996826171875,-0.00029754638671875,-0.00615692138671875,0,
00:00:05.052,0.000108718872070313,-0.000291824340820313,-0.00616836547851563,0,
00:00:05.056,0.0001373291015625,-0.000286102294921875,-0.00619125366210938,0,
00:00:05.06,0.000131607055664063,-0.000286102294921875,-0.00619125366210938,0,
00:00:05.064,0.000120162963867188,-0.000303268432617188,-0.0062255859375,0,
00:00:05.068,9.1552734375E-05,-0.000308990478515625,-0.00620269775390625,0,
00:00:05.072,9.72747802734375E-05,-0.000303268432617188,-0.00625419616699219,0,
00:00:05.076,0.000102996826171875,-0.000308990478515625,-0.00627708435058594,0,
00:00:05.08,0.000125885009765625,-0.00029754638671875,-0.00629997253417969,0,
00:00:05.084,0.00011444091796875,-0.000308990478515625,-0.00632858276367188,0,
00:00:05.088,0.0001373291015625,-0.000303268432617188,-0.00632858276367188,0,
00:00:05.092,0.00016021728515625,-0.000303268432617188,-0.00632858276367188,0,
00:00:05.096,0.000125885009765625,-0.000314712524414063,-0.00637435913085938,0,
00:00:05.1,0.000120162963867188,-0.000314712524414063,-0.00640296936035156,0,
00:00:05.104,0.000125885009765625,-0.000303268432617188,-0.00642013549804688,0,
00:00:05.108,0.000143051147460938,-0.00029754638671875,-0.00640869140625,0,
00:00:05.112,0.000125885009765625,-0.000303268432617188,-0.00646018981933594,0,
00:00:05.116,0.000131607055664063,-0.00029754638671875,-0.00647735595703125,0,
00:00:05.12,0.000125885009765625,-0.000303268432617188,-0.00648307800292969,0,
00:00:05.124,0.000131607055664063,-0.000308990478515625,-0.00649452209472656,0,
00:00:05.128,0.000154495239257813,-0.000303268432617188,-0.00652885437011719,0,
00:00:05.132,0.000148773193359375,-0.000291824340820313,-0.00654029846191406,0,
00:00:05.136,9.72747802734375E-05,-0.000303268432617188,-0.00652313232421875,0,
00:00:05.14,0.0001373291015625,-0.000314712524414063,-0.0065460205078125,0,
00:00:05.144,0.000177383422851563,-0.000314712524414063,-0.00658035278320313,0,
00:00:05.148,0.000177383422851563,-0.000314712524414063,-0.00659751892089844,0,
00:00:05.152,0.00016021728515625,-0.000308990478515625,-0.00662612915039063,0,
00:00:05.156,0.0001373291015625,-0.000308990478515625,-0.00667190551757813,0,
00:00:05.16,0.000143051147460938,-0.000314712524414063,-0.00664329528808594,0,
00:00:05.164,0.000148773193359375,-0.000308990478515625,-0.006683349609375,0,
00:00:05.168,0.000188827514648438,-0.000308990478515625,-0.00666618347167969,0,
00:00:05.172,0.000171661376953125,-0.000314712524414063,-0.00670623779296875,0,
00:00:05.176,0.00016021728515625,-0.000314712524414063,-0.00674057006835938,0,
00:00:05.18,0.0001373291015625,-0.000308990478515625,-0.006683349609375,0,
00:00:05.184,0.000154495239257813,-0.000314712524414063,-0.00674057006835938,0,
00:00:05.188,0.000194549560546875,-0.000308990478515625,-0.00676918029785156,0,
00:00:05.192,0.00016021728515625,-0.000314712524414063,-0.00679206848144531,0,
00:00:05.196,0.000188827514648438,-0.000326156616210938,-0.00679206848144531,0,
00:00:05.2,0.000188827514648438,-0.000308990478515625,-0.00678634643554688,0,
00:00:05.204,0.000200271606445313,-0.000314712524414063,-0.0068206787109375,0,
00:00:05.208,0.000177383422851563,-0.000314712524414063,-0.00683784484863281,0,
00:00:05.212,0.000200271606445313,-0.000308990478515625,-0.00685501098632813,0,
00:00:05.216,0.000171661376953125,-0.000303268432617188,-0.00687217712402344,0,
00:00:05.22,0.000165939331054688,-0.000314712524414063,-0.00690650939941406,0,
00:00:05.224,0.000188827514648438,-0.000308990478515625,-0.00690650939941406,0,
00:00:05.228,0.000165939331054688,-0.000308990478515625,-0.00691795349121094,0,
00:00:05.232,0.000194549560546875,-0.000308990478515625,-0.00694656372070313,0,
00:00:05.236,0.000177383422851563,-0.000314712524414063,-0.00695228576660156,0,
00:00:05.24,0.000234603881835938,-0.000314712524414063,-0.00699234008789063,0,
00:00:05.244,0.000217437744140625,-0.000308990478515625,-0.00696945190429688,0,
00:00:05.248,0.000165939331054688,-0.000314712524414063,-0.00699806213378906,0,
00:00:05.252,0.00020599365234375,-0.000326156616210938,-0.00702095031738281,0,
00:00:05.256,0.000177383422851563,-0.0003204345703125,-0.00702095031738281,0,
00:00:05.26,0.000194549560546875,-0.0003204345703125,-0.00703239440917969,0,
00:00:05.264,0.000240325927734375,-0.000326156616210938,-0.00705528259277344,0,
00:00:05.268,0.000211715698242188,-0.0003204345703125,-0.00707244873046875,0,
00:00:05.272,0.0002288818359375,-0.000308990478515625,-0.00708961486816406,0,
00:00:05.276,0.000217437744140625,-0.000314712524414063,-0.00710105895996094,0,
00:00:05.28,0.0002288818359375,-0.000308990478515625,-0.00714683532714844,0,
00:00:05.284,0.000188827514648438,-0.000314712524414063,-0.00714111328125,0,
00:00:05.288,0.000165939331054688,-0.000326156616210938,-0.00710105895996094,0,
00:00:05.292,0.000217437744140625,-0.000326156616210938,-0.00712394714355469,0,
00:00:05.296,0.000211715698242188,-0.000314712524414063,-0.00714111328125,0,
00:00:05.3,0.0002288818359375,-0.000314712524414063,-0.00719833374023438,0,
00:00:05.304,0.000223159790039063,-0.000308990478515625,-0.00719261169433594,0,
00:00:05.308,0.000217437744140625,-0.000314712524414063,-0.0071868896484375,0,
00:00:05.312,0.00020599365234375,-0.0003204345703125,-0.00719833374023438,0,
00:00:05.316,0.000171661376953125,-0.000314712524414063,-0.00721549987792969,0,
00:00:05.32,0.000234603881835938,-0.0003204345703125,-0.00723838806152344,0,
00:00:05.324,0.00025177001953125,-0.000314712524414063,-0.00727272033691406,0,
00:00:05.328,0.000240325927734375,-0.000314712524414063,-0.00727272033691406,0,
00:00:05.332,0.000223159790039063,-0.000308990478515625,-0.00725555419921875,0,
00:00:05.336,0.00018310546875,-0.000308990478515625,-0.00726699829101563,0,
00:00:05.34,0.000211715698242188,-0.000303268432617188,-0.00729560852050781,0,
00:00:05.344,0.00025177001953125,-0.000314712524414063,-0.00731849670410156,0,
00:00:05.348,0.000223159790039063,-0.000326156616210938,-0.00730133056640625,0,
00:00:05.352,0.000223159790039063,-0.0003204345703125,-0.00730705261230469,0,
00:00:05.356,0.000234603881835938,-0.000314712524414063,-0.00733566284179688,0,
00:00:05.36,0.000240325927734375,-0.0003204345703125,-0.00735282897949219,0,
00:00:05.364,0.000223159790039063,-0.000331878662109375,-0.00734710693359375,0,
00:00:05.368,0.0002288818359375,-0.000331878662109375,-0.00735282897949219,0,
00:00:05.372,0.000246047973632813,-0.000326156616210938,-0.00736427307128906,0,
00:00:05.376,0.000240325927734375,-0.0003204345703125,-0.00739288330078125,0,
00:00:05.38,0.000240325927734375,-0.000308990478515625,-0.007415771484375,0,
00:00:05.384,0.000240325927734375,-0.000308990478515625,-0.00741004943847656,0,
00:00:05.388,0.000200271606445313,-0.000308990478515625,-0.00739288330078125,0,
00:00:05.392,0.000200271606445313,-0.0003204345703125,-0.00740432739257813,0,
00:00:05.396,0.00025177001953125,-0.00029754638671875,-0.00742149353027344,0,
00:00:05.4,0.000257492065429688,-0.00029754638671875,-0.00743865966796875,0,
00:00:05.404,0.000234603881835938,-0.000308990478515625,-0.00743293762207031,0,
00:00:05.408,0.000246047973632813,-0.000303268432617188,-0.00745010375976563,0,
00:00:05.412,0.000263214111328125,-0.000303268432617188,-0.00749015808105469,0,
00:00:05.416,0.000263214111328125,-0.000308990478515625,-0.00748443603515625,0,
00:00:05.42,0.000223159790039063,-0.000308990478515625,-0.00747299194335938,0,
00:00:05.424,0.000257492065429688,-0.000291824340820313,-0.00749015808105469,0,
00:00:05.428,0.000246047973632813,-0.000308990478515625,-0.00748443603515625,0,
00:00:05.432,0.000240325927734375,-0.000308990478515625,-0.00747871398925781,0,
00:00:05.436,0.000211715698242188,-0.000314712524414063,-0.00751304626464844,0,
00:00:05.44,0.0002288818359375,-0.000308990478515625,-0.00751304626464844,0,
00:00:05.444,0.000246047973632813,-0.000303268432617188,-0.00751304626464844,0,
00:00:05.448,0.000257492065429688,-0.000308990478515625,-0.00752449035644531,0,
00:00:05.452,0.000263214111328125,-0.000308990478515625,-0.00754165649414063,0,
00:00:05.456,0.00025177001953125,-0.000308990478515625,-0.00754737854003906,0,
00:00:05.46,0.000257492065429688,-0.000314712524414063,-0.00751876831054688,0,
00:00:05.464,0.000240325927734375,-0.0003204345703125,-0.0075531005859375,0,
00:00:05.468,0.000246047973632813,-0.000314712524414063,-0.00756454467773438,0,
00:00:05.472,0.000223159790039063,-0.000308990478515625,-0.00757026672363281,0,
00:00:05.476,0.000200271606445313,-0.000308990478515625,-0.00757598876953125,0,
00:00:05.48,0.0002288818359375,-0.000314712524414063,-0.007598876953125,0,
00:00:05.484,0.000263214111328125,-0.000303268432617188,-0.00754737854003906,0,
00:00:05.488,0.000280380249023438,-0.000303268432617188,-0.00758743286132813,0,
00:00:05.492,0.000286102294921875,-0.000303268432617188,-0.00759315490722656,0,
00:00:05.496,0.000268936157226563,-0.000303268432617188,-0.00761604309082031,0,
00:00:05.5,0.000257492065429688,-0.000308990478515625,-0.00761032104492188,0,
00:00:05.504,0.000263214111328125,-0.000308990478515625,-0.00761032104492188,0,
00:00:05.508,0.000257492065429688,-0.000303268432617188,-0.00762176513671875,0,
00:00:05.512,0.000268936157226563,-0.00029754638671875,-0.00765609741210938,0,
00:00:05.516,0.000268936157226563,-0.000291824340820313,-0.00765037536621094,0,
00:00:05.52,0.000246047973632813,-0.000303268432617188,-0.00763320922851563,0,
00:00:05.524,0.000240325927734375,-0.000308990478515625,-0.00766181945800781,0,
00:00:05.528,0.00025177001953125,-0.000314712524414063,-0.00761032104492188,0,
00:00:05.532,0.000263214111328125,-0.000308990478515625,-0.00762176513671875,0,
00:00:05.536,0.000240325927734375,-0.000314712524414063,-0.0076446533203125,0,
00:00:05.54,0.000240325927734375,-0.000314712524414063,-0.00765609741210938,0,
00:00:05.544,0.000223159790039063,-0.000308990478515625,-0.00765037536621094,0,
00:00:05.548,0.000308990478515625,-0.000308990478515625,-0.00765609741210938,0,
00:00:05.552,0.000234603881835938,-0.0003204345703125,-0.00766181945800781,0,
00:00:05.556,0.00025177001953125,-0.000314712524414063,-0.00770187377929688,0,
00:00:05.56,0.000280380249023438,-0.000314712524414063,-0.0076904296875,0,
00:00:05.564,0.000263214111328125,-0.0003204345703125,-0.00766754150390625,0,
00:00:05.568,0.000274658203125,-0.0003204345703125,-0.00769615173339844,0,
00:00:05.572,0.00025177001953125,-0.000308990478515625,-0.00771331787109375,0,
00:00:05.576,0.000257492065429688,-0.000303268432617188,-0.00770759582519531,0,
00:00:05.58,0.000257492065429688,-0.000291824340820313,-0.00770187377929688,0,
00:00:05.584,0.000263214111328125,-0.00029754638671875,-0.00771903991699219,0,
00:00:05.588,0.000274658203125,-0.00029754638671875,-0.00767898559570313,0,
00:00:05.592,0.000240325927734375,-0.000303268432617188,-0.00771331787109375,0,
00:00:05.596,0.000263214111328125,-0.000308990478515625,-0.00770187377929688,0,
00:00:05.6,0.000257492065429688,-0.000314712524414063,-0.0076904296875,0,
00:00:05.604,0.000246047973632813,-0.000308990478515625,-0.00771331787109375,0,
00:00:05.608,0.000257492065429688,-0.000314712524414063,-0.00771903991699219,0,
00:00:05.612,0.000257492065429688,-0.000308990478515625,-0.00770187377929688,0,
00:00:05.616,0.000234603881835938,-0.000308990478515625,-0.00770759582519531,0,
00:00:05.62,0.000200271606445313,-0.000303268432617188,-0.007781982421875,0,
00:00:05.624,0.0002288818359375,-0.000308990478515625,-0.00772476196289063,0,
00:00:05.628,0.000246047973632813,-0.000308990478515625,-0.00770759582519531,0,
00:00:05.632,0.000280380249023438,-0.000308990478515625,-0.00775337219238281,0,
00:00:05.636,0.000280380249023438,-0.000308990478515625,-0.0077362060546875,0,
00:00:05.64,0.000274658203125,-0.000303268432617188,-0.00773048400878906,0,
00:00:05.644,0.000263214111328125,-0.000303268432617188,-0.00775337219238281,0,
00:00:05.648,0.0002288818359375,-0.000308990478515625,-0.00775337219238281,0,
00:00:05.652,0.000246047973632813,-0.000308990478515625,-0.0077362060546875,0,
00:00:05.656,0.000291824340820313,-0.00029754638671875,-0.00775909423828125,0,
00:00:05.66,0.000268936157226563,-0.000303268432617188,-0.00776481628417969,0,
00:00:05.664,0.00025177001953125,-0.000303268432617188,-0.00777626037597656,0,
00:00:05.668,0.000246047973632813,-0.00029754638671875,-0.00776481628417969,0,
00:00:05.672,0.000257492065429688,-0.00029754638671875,-0.00776481628417969,0,
00:00:05.676,0.00025177001953125,-0.00029754638671875,-0.00777053833007813,0,
00:00:05.68,0.000263214111328125,-0.000291824340820313,-0.00781631469726563,0,
00:00:05.684,0.0002288818359375,-0.000303268432617188,-0.00781059265136719,0,
00:00:05.688,0.00025177001953125,-0.00029754638671875,-0.00773048400878906,0,
00:00:05.692,0.000246047973632813,-0.000303268432617188,-0.00774765014648438,0,
00:00:05.696,0.000246047973632813,-0.00029754638671875,-0.00779342651367188,0,
00:00:05.7,0.000257492065429688,-0.000291824340820313,-0.007781982421875,0,
00:00:05.704,0.00025177001953125,-0.000286102294921875,-0.00779342651367188,0,
00:00:05.708,0.000240325927734375,-0.00029754638671875,-0.00779342651367188,0,
00:00:05.712,0.000246047973632813,-0.00029754638671875,-0.00780487060546875,0,
00:00:05.716,0.000257492065429688,-0.000291824340820313,-0.00779914855957031,0,
00:00:05.72,0.000234603881835938,-0.00029754638671875,-0.00781059265136719,0,
00:00:05.724,0.000223159790039063,-0.000308990478515625,-0.00781059265136719,0,
00:00:05.728,0.00025177001953125,-0.000308990478515625,-0.00781059265136719,0,
00:00:05.732,0.00025177001953125,-0.000314712524414063,-0.00779914855957031,0,
00:00:05.736,0.000246047973632813,-0.000303268432617188,-0.00782203674316406,0,
00:00:05.74,0.000257492065429688,-0.000314712524414063,-0.00782203674316406,0,
00:00:05.744,0.000234603881835938,-0.000308990478515625,-0.00779914855957031,0,
00:00:05.748,0.000234603881835938,-0.000303268432617188,-0.00781059265136719,0,
00:00:05.752,0.000234603881835938,-0.000308990478515625,-0.00781631469726563,0,
00:00:05.756,0.00020599365234375,-0.000308990478515625,-0.00785064697265625,0,
00:00:05.76,0.000240325927734375,-0.000314712524414063,-0.00779342651367188,0,
00:00:05.764,0.000257492065429688,-0.0003204345703125,-0.00777626037597656,0,
00:00:05.768,0.000268936157226563,-0.000314712524414063,-0.00784492492675781,0,
00:00:05.772,0.0002288818359375,-0.000314712524414063,-0.00783920288085938,0,
00:00:05.776,0.000234603881835938,-0.000303268432617188,-0.00780487060546875,0,
00:00:05.78,0.0002288818359375,-0.00029754638671875,-0.0078277587890625,0,
00:00:05.784,0.0002288818359375,-0.000308990478515625,-0.00781059265136719,0,
00:00:05.788,0.0002288818359375,-0.000314712524414063,-0.00783348083496094,0,
00:00:05.792,0.00025177001953125,-0.000308990478515625,-0.00780487060546875,0,
00:00:05.796,0.000240325927734375,-0.000303268432617188,-0.0078277587890625,0,
00:00:05.8,0.000223159790039063,-0.000308990478515625,-0.00783348083496094,0,
00:00:05.804,0.0002288818359375,-0.000308990478515625,-0.00782203674316406,0,
00:00:05.808,0.000211715698242188,-0.000308990478515625,-0.00782203674316406,0,
00:00:05.812,0.000234603881835938,-0.000314712524414063,-0.00786781311035156,0,
00:00:05.816,0.0002288818359375,-0.000314712524414063,-0.00783920288085938,0,
00:00:05.82,0.000217437744140625,-0.000308990478515625,-0.00781631469726563,0,
00:00:05.824,0.000223159790039063,-0.0003204345703125,-0.00781631469726563,0,
00:00:05.828,0.000223159790039063,-0.000314712524414063,-0.00779342651367188,0,
00:00:05.832,0.000240325927734375,-0.000303268432617188,-0.00779914855957031,0,
00:00:05.836,0.000217437744140625,-0.000303268432617188,-0.00780487060546875,0,
00:00:05.84,0.000194549560546875,-0.000308990478515625,-0.00782203674316406,0,
00:00:05.844,0.00025177001953125,-0.000314712524414063,-0.00782203674316406,0,
00:00:05.848,0.000240325927734375,-0.000308990478515625,-0.0078277587890625,0,
00:00:05.852,0.000223159790039063,-0.000303268432617188,-0.00782203674316406,0,
00:00:05.856,0.00020599365234375,-0.000303268432617188,-0.00781631469726563,0,
00:00:05.86,0.000200271606445313,-0.000308990478515625,-0.00782203674316406,0,
00:00:05.864,0.000240325927734375,-0.000308990478515625,-0.00781631469726563,0,
00:00:05.868,0.000217437744140625,-0.000308990478515625,-0.00782203674316406,0,
00:00:05.872,0.000223159790039063,-0.0003204345703125,-0.00781631469726563,0,
00:00:05.876,0.000240325927734375,-0.00029754638671875,-0.00780487060546875,0,
00:00:05.88,0.00020599365234375,-0.00029754638671875,-0.00791358947753906,0,
00:00:05.884,0.00020599365234375,-0.0003204345703125,-0.00781631469726563,0,
00:00:05.888,0.000223159790039063,-0.000308990478515625,-0.007781982421875,0,
00:00:05.892,0.000240325927734375,-0.00029754638671875,-0.00782203674316406,0,
00:00:05.896,0.0002288818359375,-0.000303268432617188,-0.00783348083496094,0,
00:00:05.9,0.000211715698242188,-0.000308990478515625,-0.00779914855957031,0,
00:00:05.904,0.000234603881835938,-0.000326156616210938,-0.00780487060546875,0,
00:00:05.908,0.00020599365234375,-0.000326156616210938,-0.00779342651367188,0,
00:00:05.912,0.0002288818359375,-0.000314712524414063,-0.00778770446777344,0,
00:00:05.916,0.000223159790039063,-0.000314712524414063,-0.00779914855957031,0,
00:00:05.92,0.00020599365234375,-0.00029754638671875,-0.00780487060546875,0,
00:00:05.924,0.000200271606445313,-0.000314712524414063,-0.00782203674316406,0,
00:00:05.928,0.000234603881835938,-0.000314712524414063,-0.00782203674316406,0,
00:00:05.932,0.000200271606445313,-0.0003204345703125,-0.0078277587890625,0,
00:00:05.936,0.000165939331054688,-0.000308990478515625,-0.0078277587890625,0,
00:00:05.94,0.000223159790039063,-0.000314712524414063,-0.0078277587890625,0,
00:00:05.944,0.000246047973632813,-0.000314712524414063,-0.00779342651367188,0,
00:00:05.948,0.000217437744140625,-0.0003204345703125,-0.00780487060546875,0,
00:00:05.952,0.000223159790039063,-0.000326156616210938,-0.00777053833007813,0,
00:00:05.956,0.000217437744140625,-0.000326156616210938,-0.00780487060546875,0,
00:00:05.96,0.00020599365234375,-0.000326156616210938,-0.00780487060546875,0,
00:00:05.964,0.00020599365234375,-0.0003204345703125,-0.007781982421875,0,
00:00:05.968,0.000188827514648438,-0.000326156616210938,-0.00776481628417969,0,
00:00:05.972,0.000211715698242188,-0.0003204345703125,-0.00778770446777344,0,
00:00:05.976,0.000246047973632813,-0.000314712524414063,-0.00781631469726563,0,
00:00:05.98,0.000234603881835938,-0.000308990478515625,-0.00779914855957031,0,
00:00:05.984,0.00020599365234375,-0.000314712524414063,-0.00778770446777344,0,
00:00:05.988,0.000217437744140625,-0.000308990478515625,-0.007781982421875,0,
00:00:05.992,0.000223159790039063,-0.000303268432617188,-0.00778770446777344,0,
00:00:05.996,0.000234603881835938,-0.000308990478515625,-0.00779342651367188,0,
00:00:06,0.000217437744140625,-0.0003204345703125,-0.00777626037597656,0,
00:00:06.004,0.000194549560546875,-0.000326156616210938,-0.00777626037597656,0,
00:00:06.008,0.000200271606445313,-0.000314712524414063,-0.00774765014648438,0,
00:00:06.012,0.000223159790039063,-0.000326156616210938,-0.00777053833007813,0,
00:00:06.016,0.000194549560546875,-0.0003204345703125,-0.00779342651367188,0,
00:00:06.02,0.00020599365234375,-0.0003204345703125,-0.00777626037597656,0,
00:00:06.024,0.000211715698242188,-0.0003204345703125,-0.00774765014648438,0,
00:00:06.028,0.000188827514648438,-0.0003204345703125,-0.00776481628417969,0,
00:00:06.032,0.000223159790039063,-0.000314712524414063,-0.00776481628417969,0,
00:00:06.036,0.000211715698242188,-0.000314712524414063,-0.00776481628417969,0,
00:00:06.04,0.000194549560546875,-0.000314712524414063,-0.00776481628417969,0,
00:00:06.044,0.0002288818359375,-0.000314712524414063,-0.00777053833007813,0,
00:00:06.048,0.000217437744140625,-0.000314712524414063,-0.00777626037597656,0,
00:00:06.052,0.000200271606445313,-0.000326156616210938,-0.00777053833007813,0,
00:00:06.056,0.000211715698242188,-0.000314712524414063,-0.00777626037597656,0,
00:00:06.06,0.00020599365234375,-0.000326156616210938,-0.00775909423828125,0,
00:00:06.064,0.000200271606445313,-0.000326156616210938,-0.00771331787109375,0,
00:00:06.068,0.000188827514648438,-0.000326156616210938,-0.00774192810058594,0,
00:00:06.072,0.00018310546875,-0.000326156616210938,-0.00775909423828125,0,
00:00:06.076,0.000154495239257813,-0.000326156616210938,-0.00770759582519531,0,
00:00:06.08,0.000165939331054688,-0.0003204345703125,-0.00771903991699219,0,
00:00:06.084,0.000246047973632813,-0.0003204345703125,-0.00775909423828125,0,
00:00:06.088,0.0002288818359375,-0.000314712524414063,-0.00774192810058594,0,
00:00:06.092,0.000200271606445313,-0.000314712524414063,-0.00774192810058594,0,
00:00:06.096,0.000223159790039063,-0.000314712524414063,-0.0077362060546875,0,
00:00:06.1,0.00020599365234375,-0.0003204345703125,-0.00773048400878906,0,
00:00:06.104,0.000211715698242188,-0.0003204345703125,-0.00773048400878906,0,
00:00:06.108,0.000211715698242188,-0.0003204345703125,-0.00771331787109375,0,
00:00:06.112,0.000188827514648438,-0.000314712524414063,-0.00771331787109375,0,
00:00:06.116,0.00020599365234375,-0.000314712524414063,-0.00774192810058594,0,
