Elapsed Time,EMG1,EMG2,EMG3,BioRadio Event,
00:00:00,-1.1444091796875E-05,0.000909805297851563,0.0143566131591797,0,
00:00:00.004,-1.71661376953125E-05,0.00089263916015625,0.0143795013427734,0,
00:00:00.008,-1.71661376953125E-05,0.000881195068359375,0.0143909454345703,0,
00:00:00.012,-2.288818359375E-05,0.0008697509765625,0.014373779296875,0,
00:00:00.016,-2.288818359375E-05,0.00089263916015625,0.0143680572509766,0,
00:00:00.02,-1.1444091796875E-05,0.000909805297851563,0.014373779296875,0,
00:00:00.024,-5.7220458984375E-06,0.000898361206054688,0.0143508911132813,0,
00:00:00.028,-1.1444091796875E-05,0.00089263916015625,0.0143623352050781,0,
00:00:00.032,-1.71661376953125E-05,0.000909805297851563,0.0143795013427734,0,
00:00:00.036,-1.71661376953125E-05,0.000886917114257813,0.0143566131591797,0,
00:00:00.04,-1.1444091796875E-05,0.000881195068359375,0.0143623352050781,0,
00:00:00.044,-1.1444091796875E-05,0.000898361206054688,0.0143508911132813,0,
00:00:00.048,-1.1444091796875E-05,0.000898361206054688,0.0143508911132813,0,
00:00:00.052,-1.1444091796875E-05,0.000909805297851563,0.014373779296875,0,
00:00:00.056,-1.71661376953125E-05,0.000904083251953125,0.014373779296875,0,
00:00:00.06,-2.86102294921875E-05,0.000904083251953125,0.0143795013427734,0,
00:00:00.064,-1.71661376953125E-05,0.000898361206054688,0.0143680572509766,0,
00:00:00.068,-1.71661376953125E-05,0.000886917114257813,0.0143680572509766,0,
00:00:00.072,-1.1444091796875E-05,0.000909805297851563,0.0143680572509766,0,
00:00:00.076,-1.1444091796875E-05,0.000898361206054688,0.0143623352050781,0,
00:00:00.08,-2.288818359375E-05,0.000886917114257813,0.014373779296875,0,
00:00:00.084,-1.1444091796875E-05,0.000909805297851563,0.0143623352050781,0,
00:00:00.088,-1.1444091796875E-05,0.000909805297851563,0.0143623352050781,0,
00:00:00.092,-1.71661376953125E-05,0.000904083251953125,0.0143623352050781,0,
00:00:00.096,-2.288818359375E-05,0.000898361206054688,0.0143680572509766,0,
00:00:00.1,-1.71661376953125E-05,0.000898361206054688,0.0143680572509766,0,
00:00:00.104,-1.1444091796875E-05,0.000904083251953125,0.0143566131591797,0,
00:00:00.108,-5.7220458984375E-06,0.000904083251953125,0.0143451690673828,0,
00:00:00.112,-1.1444091796875E-05,0.00089263916015625,0.0143566131591797,0,
00:00:00.116,-1.71661376953125E-05,0.000904083251953125,0.0144023895263672,0,
00:00:00.12,-1.71661376953125E-05,0.000898361206054688,0.014373779296875,0,
00:00:00.124,-2.288818359375E-05,0.000881195068359375,0.014373779296875,0,
00:00:00.128,-2.288818359375E-05,0.000886917114257813,0.0143566131591797,0,
00:00:00.132,-1.1444091796875E-05,0.000904083251953125,0.0143623352050781,0,
00:00:00.136,-2.288818359375E-05,0.000909805297851563,0.0143623352050781,0,
00:00:00.14,-1.1444091796875E-05,0.00089263916015625,0.0143623352050781,0,
00:00:00.144,-1.1444091796875E-05,0.000909805297851563,0.0143566131591797,0,
00:00:00.148,-1.1444091796875E-05,0.00091552734375,0.0143680572509766,0,
00:00:00.152,-1.71661376953125E-05,0.000909805297851563,0.014373779296875,0,
00:00:00.156,-2.288818359375E-05,0.000904083251953125,0.0143680572509766,0,
00:00:00.16,-1.1444091796875E-05,0.000909805297851563,0.0143451690673828,0,
00:00:00.164,-1.1444091796875E-05,0.000904083251953125,0.0143222808837891,0,
00:00:00.168,-1.71661376953125E-05,0.00089263916015625,0.014373779296875,0,
00:00:00.172,-1.71661376953125E-05,0.000898361206054688,0.0143623352050781,0,
00:00:00.176,-2.288818359375E-05,0.000921249389648438,0.0143852233886719,0,
00:00:00.18,-1.71661376953125E-05,0.000909805297851563,0.0143795013427734,0,
00:00:00.184,-1.71661376953125E-05,0.000909805297851563,0.0143680572509766,0,
00:00:00.188,-1.71661376953125E-05,0.00091552734375,0.0143508911132813,0,
00:00:00.192,-2.288818359375E-05,0.000909805297851563,0.0143508911132813,0,
00:00:00.196,-2.288818359375E-05,0.000886917114257813,0.0143566131591797,0,
00:00:00.2,-2.288818359375E-05,0.000886917114257813,0.0143680572509766,0,
00:00:00.204,-2.86102294921875E-05,0.000904083251953125,0.0143566131591797,0,
00:00:00.208,-1.71661376953125E-05,0.00091552734375,0.0143566131591797,0,
00:00:00.212,-1.71661376953125E-05,0.000921249389648438,0.014373779296875,0,
00:00:00.216,-1.71661376953125E-05,0.00091552734375,0.0143623352050781,0,
00:00:00.22,-2.288818359375E-05,0.00089263916015625,0.0143566131591797,0,
00:00:00.224,-2.288818359375E-05,0.000898361206054688,0.0143508911132813,0,
00:00:00.228,-1.71661376953125E-05,0.000909805297851563,0.0143394470214844,0,
00:00:00.232,-1.71661376953125E-05,0.000909805297851563,0.0143280029296875,0,
00:00:00.236,-2.288818359375E-05,0.000932693481445313,0.0143680572509766,0,
00:00:00.24,-1.71661376953125E-05,0.000921249389648438,0.0143623352050781,0,
00:00:00.244,-2.288818359375E-05,0.000909805297851563,0.0143680572509766,0,
00:00:00.248,-2.288818359375E-05,0.000909805297851563,0.0143680572509766,0,
00:00:00.252,-2.288818359375E-05,0.000886917114257813,0.0143623352050781,0,
00:00:00.256,-2.288818359375E-05,0.00089263916015625,0.0143623352050781,0,
00:00:00.26,-1.71661376953125E-05,0.00093841552734375,0.0143623352050781,0,
00:00:00.264,-1.1444091796875E-05,0.000932693481445313,0.0143508911132813,0,
00:00:00.268,-1.71661376953125E-05,0.000921249389648438,0.0143337249755859,0,
00:00:00.272,-2.288818359375E-05,0.000909805297851563,0.0143451690673828,0,
00:00:00.276,-2.288818359375E-05,0.00089263916015625,0.0143108367919922,0,
00:00:00.28,-3.4332275390625E-05,0.000909805297851563,0.0143795013427734,0,
00:00:00.284,-2.288818359375E-05,0.000921249389648438,0.0143680572509766,0,
00:00:00.288,-2.288818359375E-05,0.00091552734375,0.014373779296875,0,
00:00:00.292,-1.71661376953125E-05,0.000921249389648438,0.0143508911132813,0,
00:00:00.296,-1.71661376953125E-05,0.000921249389648438,0.0143566131591797,0,
00:00:00.3,-3.4332275390625E-05,0.000909805297851563,0.0143394470214844,0,
00:00:00.304,-2.86102294921875E-05,0.000898361206054688,0.0143566131591797,0,
00:00:00.308,-2.288818359375E-05,0.00089263916015625,0.0143566131591797,0,
00:00:00.312,-2.288818359375E-05,0.000904083251953125,0.0143508911132813,0,
00:00:00.316,-1.71661376953125E-05,0.000921249389648438,0.0143451690673828,0,
00:00:00.32,-1.71661376953125E-05,0.000921249389648438,0.0143508911132813,0,
00:00:00.324,-2.288818359375E-05,0.000909805297851563,0.0143337249755859,0,
00:00:00.328,-2.288818359375E-05,0.000909805297851563,0.0143508911132813,0,
00:00:00.332,-1.1444091796875E-05,0.00093841552734375,0.0143222808837891,0,
00:00:00.336,-2.288818359375E-05,0.000926971435546875,0.0143394470214844,0,
00:00:00.34,-2.288818359375E-05,0.00091552734375,0.0143508911132813,0,
00:00:00.344,-2.288818359375E-05,0.000909805297851563,0.0143623352050781,0,
00:00:00.348,-2.86102294921875E-05,0.00091552734375,0.0143623352050781,0,
00:00:00.352,-1.71661376953125E-05,0.000926971435546875,0.0143566131591797,0,
00:00:00.356,-2.288818359375E-05,0.000926971435546875,0.0143394470214844,0,
00:00:00.36,-2.86102294921875E-05,0.000909805297851563,0.0143451690673828,0,
00:00:00.364,-2.86102294921875E-05,0.000898361206054688,0.0143566131591797,0,
00:00:00.368,-2.86102294921875E-05,0.000909805297851563,0.0143451690673828,0,
00:00:00.372,-3.4332275390625E-05,0.000921249389648438,0.0143508911132813,0,
00:00:00.376,-2.86102294921875E-05,0.000909805297851563,0.0143451690673828,0,
00:00:00.38,-2.86102294921875E-05,0.000898361206054688,0.0143508911132813,0,
00:00:00.384,-3.4332275390625E-05,0.00091552734375,0.0143508911132813,0,
00:00:00.388,-2.288818359375E-05,0.000932693481445313,0.0143451690673828,0,
00:00:00.392,-2.288818359375E-05,0.00091552734375,0.0143394470214844,0,
00:00:00.396,-2.288818359375E-05,0.00091552734375,0.0142822265625,0,
00:00:00.4,-2.288818359375E-05,0.000932693481445313,0.0143508911132813,0,
00:00:00.404,-2.86102294921875E-05,0.000909805297851563,0.0143566131591797,0,
00:00:00.408,-2.86102294921875E-05,0.000904083251953125,0.0143623352050781,0,
00:00:00.412,-2.86102294921875E-05,0.00091552734375,0.0143623352050781,0,
00:00:00.416,-2.86102294921875E-05,0.000909805297851563,0.0143451690673828,0,
00:00:00.42,-2.86102294921875E-05,0.00091552734375,0.0143394470214844,0,
00:00:00.424,-2.86102294921875E-05,0.000921249389648438,0.0143394470214844,0,
00:00:00.428,-2.288818359375E-05,0.00091552734375,0.0143394470214844,0,
00:00:00.432,-2.288818359375E-05,0.00091552734375,0.0143508911132813,0,
00:00:00.436,-2.86102294921875E-05,0.00093841552734375,0.0143508911132813,0,
00:00:00.44,-2.288818359375E-05,0.000926971435546875,0.0143451690673828,0,
00:00:00.444,-2.288818359375E-05,0.00091552734375,0.0143337249755859,0,
00:00:00.448,-2.288818359375E-05,0.000909805297851563,0.0143051147460938,0,
00:00:00.452,-2.86102294921875E-05,0.000909805297851563,0.0143165588378906,0,
00:00:00.456,-3.4332275390625E-05,0.000904083251953125,0.0143795013427734,0,
00:00:00.46,-4.00543212890625E-05,0.000909805297851563,0.0143508911132813,0,
00:00:00.464,-2.86102294921875E-05,0.00091552734375,0.0143337249755859,0,
00:00:00.468,-2.288818359375E-05,0.000909805297851563,0.0143337249755859,0,
00:00:00.472,-2.86102294921875E-05,0.00091552734375,0.0143508911132813,0,
00:00:00.476,-2.86102294921875E-05,0.00091552734375,0.0143394470214844,0,
00:00:00.48,-3.4332275390625E-05,0.00091552734375,0.0143451690673828,0,
00:00:00.484,-2.86102294921875E-05,0.000932693481445313,0.0143508911132813,0,
00:00:00.488,-2.288818359375E-05,0.000926971435546875,0.0143280029296875,0,
00:00:00.492,-2.288818359375E-05,0.000921249389648438,0.0143394470214844,0,
00:00:00.496,-2.86102294921875E-05,0.00091552734375,0.0143394470214844,0,
00:00:00.5,-2.86102294921875E-05,0.000921249389648438,0.0143222808837891,0,
00:00:00.504,-2.86102294921875E-05,0.00091552734375,0.0143394470214844,0,
00:00:00.508,-3.4332275390625E-05,0.000909805297851563,0.0143165588378906,0,
00:00:00.512,-2.288818359375E-05,0.00091552734375,0.0143337249755859,0,
00:00:00.516,-2.86102294921875E-05,0.00091552734375,0.0143451690673828,0,
00:00:00.52,-3.4332275390625E-05,0.000921249389648438,0.0143451690673828,0,
00:00:00.524,-2.86102294921875E-05,0.000921249389648438,0.0143394470214844,0,
00:00:00.528,-2.288818359375E-05,0.000932693481445313,0.0143165588378906,0,
00:00:00.532,-2.288818359375E-05,0.000926971435546875,0.0143165588378906,0,
00:00:00.536,-2.86102294921875E-05,0.000921249389648438,0.0143337249755859,0,
00:00:00.54,-2.86102294921875E-05,0.000926971435546875,0.0143508911132813,0,
00:00:00.544,-3.4332275390625E-05,0.000921249389648438,0.0143394470214844,0,
00:00:00.548,-3.4332275390625E-05,0.000926971435546875,0.0143337249755859,0,
00:00:00.552,-2.86102294921875E-05,0.000921249389648438,0.0143337249755859,0,
00:00:00.556,-2.86102294921875E-05,0.00091552734375,0.0143280029296875,0,
00:00:00.56,-4.00543212890625E-05,0.000909805297851563,0.0143222808837891,0,
00:00:00.564,-3.4332275390625E-05,0.000904083251953125,0.0143165588378906,0,
00:00:00.568,-3.4332275390625E-05,0.000904083251953125,0.0143280029296875,0,
00:00:00.572,-2.288818359375E-05,0.000932693481445313,0.0143165588378906,0,
00:00:00.576,-2.288818359375E-05,0.00093841552734375,0.0143280029296875,0,
00:00:00.58,-2.86102294921875E-05,0.000921249389648438,0.0143280029296875,0,
00:00:00.584,-2.86102294921875E-05,0.000909805297851563,0.0143280029296875,0,
00:00:00.588,-2.86102294921875E-05,0.000921249389648438,0.0143280029296875,0,
00:00:00.592,-3.4332275390625E-05,0.000932693481445313,0.0143337249755859,0,
00:00:00.596,-2.86102294921875E-05,0.00093841552734375,0.0143165588378906,0,
00:00:00.6,-3.4332275390625E-05,0.000926971435546875,0.0143451690673828,0,
00:00:00.604,-3.4332275390625E-05,0.000926971435546875,0.0143280029296875,0,
00:00:00.608,-3.4332275390625E-05,0.000909805297851563,0.0143108367919922,0,
00:00:00.612,-3.4332275390625E-05,0.00091552734375,0.0143394470214844,0,
00:00:00.616,-3.4332275390625E-05,0.000926971435546875,0.0143222808837891,0,
00:00:00.62,-4.00543212890625E-05,0.000932693481445313,0.0143222808837891,0,
00:00:00.624,-3.4332275390625E-05,0.000921249389648438,0.0143222808837891,0,
00:00:00.628,-2.86102294921875E-05,0.000926971435546875,0.0143280029296875,0,
00:00:00.632,-2.86102294921875E-05,0.00093841552734375,0.0143165588378906,0,
00:00:00.636,-3.4332275390625E-05,0.000921249389648438,0.0143165588378906,0,
00:00:00.64,-3.4332275390625E-05,0.000921249389648438,0.0143165588378906,0,
00:00:00.644,-3.4332275390625E-05,0.000921249389648438,0.0142993927001953,0,
00:00:00.648,-3.4332275390625E-05,0.000921249389648438,0.0143222808837891,0,
00:00:00.652,-3.4332275390625E-05,0.000926971435546875,0.0143165588378906,0,
00:00:00.656,-3.4332275390625E-05,0.000932693481445313,0.0143108367919922,0,
00:00:00.66,-2.86102294921875E-05,0.000921249389648438,0.0143222808837891,0,
00:00:00.664,-3.4332275390625E-05,0.000926971435546875,0.0143280029296875,0,
00:00:00.668,-4.00543212890625E-05,0.00091552734375,0.0143280029296875,0,
00:00:00.672,-2.86102294921875E-05,0.00091552734375,0.0143108367919922,0,
00:00:00.676,-2.86102294921875E-05,0.000932693481445313,0.0142936706542969,0,
00:00:00.68,-4.57763671875E-05,0.000932693481445313,0.0143280029296875,0,
00:00:00.684,-3.4332275390625E-05,0.000932693481445313,0.0143222808837891,0,
00:00:00.688,-2.86102294921875E-05,0.000921249389648438,0.0142993927001953,0,
00:00:00.692,-3.4332275390625E-05,0.000932693481445313,0.0143165588378906,0,
00:00:00.696,-3.4332275390625E-05,0.000932693481445313,0.0142993927001953,0,
00:00:00.7,-2.86102294921875E-05,0.000921249389648438,0.0143108367919922,0,
00:00:00.704,-2.86102294921875E-05,0.00093841552734375,0.0143165588378906,0,
00:00:00.708,-2.86102294921875E-05,0.00093841552734375,0.0143108367919922,0,
00:00:00.712,-3.4332275390625E-05,0.000926971435546875,0.0143222808837891,0,
00:00:00.716,-4.00543212890625E-05,0.000932693481445313,0.0143108367919922,0,
00:00:00.72,-4.00543212890625E-05,0.000921249389648438,0.0142993927001953,0,
00:00:00.724,-2.86102294921875E-05,0.000921249389648438,0.0142879486083984,0,
00:00:00.728,-4.00543212890625E-05,0.000926971435546875,0.0143337249755859,0,
00:00:00.732,-4.57763671875E-05,0.000926971435546875,0.0143222808837891,0,
00:00:00.736,-3.4332275390625E-05,0.000932693481445313,0.0143108367919922,0,
00:00:00.74,-4.00543212890625E-05,0.000926971435546875,0.0142993927001953,0,
00:00:00.744,-3.4332275390625E-05,0.000909805297851563,0.0142993927001953,0,
00:00:00.748,-2.86102294921875E-05,0.00093841552734375,0.0142993927001953,0,
00:00:00.752,-3.4332275390625E-05,0.000944137573242188,0.0142879486083984,0,
00:00:00.756,-3.4332275390625E-05,0.000921249389648438,0.0143108367919922,0,
00:00:00.76,-3.4332275390625E-05,0.000926971435546875,0.0143108367919922,0,
00:00:00.764,-4.00543212890625E-05,0.000926971435546875,0.0143108367919922,0,
00:00:00.768,-3.4332275390625E-05,0.000926971435546875,0.0143108367919922,0,
00:00:00.772,-4.00543212890625E-05,0.000921249389648438,0.0142993927001953,0,
00:00:00.776,-4.00543212890625E-05,0.000926971435546875,0.0142993927001953,0,
00:00:00.78,-3.4332275390625E-05,0.00091552734375,0.0142822265625,0,
00:00:00.784,-4.00543212890625E-05,0.000921249389648438,0.0142879486083984,0,
00:00:00.788,-3.4332275390625E-05,0.000926971435546875,0.0143108367919922,0,
00:00:00.792,-3.4332275390625E-05,0.00093841552734375,0.0142993927001953,0,
00:00:00.796,-3.4332275390625E-05,0.000932693481445313,0.0143051147460938,0,
00:00:00.8,-4.00543212890625E-05,0.000932693481445313,0.0143108367919922,0,
00:00:00.804,-3.4332275390625E-05,0.00093841552734375,0.0143108367919922,0,
00:00:00.808,-3.4332275390625E-05,0.000944137573242188,0.0142879486083984,0,
00:00:00.812,-3.4332275390625E-05,0.000932693481445313,0.0142936706542969,0,
00:00:00.816,-3.4332275390625E-05,0.000932693481445313,0.0143051147460938,0,
00:00:00.82,-3.4332275390625E-05,0.000921249389648438,0.0142879486083984,0,
00:00:00.824,-4.00543212890625E-05,0.00093841552734375,0.0143051147460938,0,
00:00:00.828,-3.4332275390625E-05,0.000955581665039063,0.0142993927001953,0,
00:00:00.832,-4.00543212890625E-05,0.000944137573242188,0.0142936706542969,0,
00:00:00.836,-4.57763671875E-05,0.000932693481445313,0.0142879486083984,0,
00:00:00.84,-2.86102294921875E-05,0.000926971435546875,0.0142650604248047,0,
00:00:00.844,-3.4332275390625E-05,0.000926971435546875,0.0142993927001953,0,
00:00:00.848,-3.4332275390625E-05,0.00093841552734375,0.0143051147460938,0,
00:00:00.852,-4.57763671875E-05,0.00093841552734375,0.0143108367919922,0,
00:00:00.856,-4.57763671875E-05,0.000926971435546875,0.0142936706542969,0,
00:00:00.86,-3.4332275390625E-05,0.000926971435546875,0.0142765045166016,0,
00:00:00.864,-3.4332275390625E-05,0.000944137573242188,0.0142478942871094,0,
00:00:00.868,-3.4332275390625E-05,0.000949859619140625,0.0143051147460938,0,
00:00:00.872,-4.00543212890625E-05,0.000932693481445313,0.0142936706542969,0,
00:00:00.876,-4.00543212890625E-05,0.000921249389648438,0.0142936706542969,0,
00:00:00.88,-4.57763671875E-05,0.000926971435546875,0.0142993927001953,0,
00:00:00.884,-4.00543212890625E-05,0.000932693481445313,0.0143108367919922,0,
00:00:00.888,-3.4332275390625E-05,0.00093841552734375,0.0142936706542969,0,
00:00:00.892,-3.4332275390625E-05,0.000944137573242188,0.0142879486083984,0,
00:00:00.896,-4.00543212890625E-05,0.000932693481445313,0.0142879486083984,0,
00:00:00.9,-4.00543212890625E-05,0.000932693481445313,0.0142707824707031,0,
00:00:00.904,-3.4332275390625E-05,0.000944137573242188,0.0142650604248047,0,
00:00:00.908,-3.4332275390625E-05,0.000949859619140625,0.0142993927001953,0,
00:00:00.912,-3.4332275390625E-05,0.000949859619140625,0.0142993927001953,0,
00:00:00.916,-4.00543212890625E-05,0.000944137573242188,0.0142765045166016,0,
00:00:00.92,-4.57763671875E-05,0.00093841552734375,0.0142879486083984,0,
00:00:00.924,-4.57763671875E-05,0.000944137573242188,0.0142936706542969,0,
00:00:00.928,-4.00543212890625E-05,0.000949859619140625,0.0142879486083984,0,
00:00:00.932,-3.4332275390625E-05,0.000944137573242188,0.0142822265625,0,
00:00:00.936,-3.4332275390625E-05,0.00093841552734375,0.0142765045166016,0,
00:00:00.94,-4.00543212890625E-05,0.000932693481445313,0.0142822265625,0,
00:00:00.944,-4.57763671875E-05,0.00093841552734375,0.0142879486083984,0,
00:00:00.948,-4.57763671875E-05,0.000926971435546875,0.0142936706542969,0,
00:00:00.952,-4.57763671875E-05,0.000921249389648438,0.0142593383789063,0,
00:00:00.956,-4.00543212890625E-05,0.000944137573242188,0.0142765045166016,0,
00:00:00.96,-3.4332275390625E-05,0.000949859619140625,0.0142936706542969,0,
00:00:00.964,-4.00543212890625E-05,0.00093841552734375,0.0142536163330078,0,
00:00:00.968,-4.00543212890625E-05,0.000921249389648438,0.0142879486083984,0,
00:00:00.972,-4.00543212890625E-05,0.000944137573242188,0.0142879486083984,0,
00:00:00.976,-3.4332275390625E-05,0.000955581665039063,0.0142707824707031,0,
00:00:00.98,-4.57763671875E-05,0.000932693481445313,0.0142707824707031,0,
00:00:00.984,-4.57763671875E-05,0.000926971435546875,0.0142879486083984,0,
00:00:00.988,-4.00543212890625E-05,0.000949859619140625,0.0142936706542969,0,
00:00:00.992,-4.00543212890625E-05,0.000949859619140625,0.0142822265625,0,
00:00:00.996,-4.00543212890625E-05,0.000944137573242188,0.0142765045166016,0,
00:00:01,-4.00543212890625E-05,0.00093841552734375,0.0142707824707031,0,
00:00:01.004,-4.00543212890625E-05,0.000944137573242188,0.0142765045166016,0,
00:00:01.008,-4.00543212890625E-05,0.000944137573242188,0.0142822265625,0,
00:00:01.012,-4.57763671875E-05,0.000944137573242188,0.0142593383789063,0,
00:00:01.016,-4.00543212890625E-05,0.000955581665039063,0.0142879486083984,0,
00:00:01.02,-4.00543212890625E-05,0.000949859619140625,0.0142650604248047,0,
00:00:01.024,-4.00543212890625E-05,0.000955581665039063,0.0142822265625,0,
00:00:01.028,-4.00543212890625E-05,0.000949859619140625,0.0142822265625,0,
00:00:01.032,-4.00543212890625E-05,0.000926971435546875,0.0142364501953125,0,
00:00:01.036,-4.57763671875E-05,0.000932693481445313,0.0142650604248047,0,
00:00:01.04,-4.57763671875E-05,0.000955581665039063,0.0142936706542969,0,
00:00:01.044,-3.4332275390625E-05,0.000955581665039063,0.0142822265625,0,
00:00:01.048,-3.4332275390625E-05,0.000949859619140625,0.0142707824707031,0,
00:00:01.052,-4.00543212890625E-05,0.000944137573242188,0.0142593383789063,0,
00:00:01.056,-4.00543212890625E-05,0.00093841552734375,0.0142707824707031,0,
00:00:01.06,-4.57763671875E-05,0.000926971435546875,0.0142707824707031,0,
00:00:01.064,-5.7220458984375E-05,0.000921249389648438,0.0142650604248047,0,
00:00:01.068,-4.57763671875E-05,0.000949859619140625,0.0142822265625,0,
00:00:01.072,-3.4332275390625E-05,0.000955581665039063,0.0142593383789063,0,
00:00:01.076,-4.00543212890625E-05,0.000949859619140625,0.0142822265625,0,
00:00:01.08,-4.57763671875E-05,0.000949859619140625,0.0142707824707031,0,
00:00:01.084,-4.57763671875E-05,0.000944137573242188,0.0142650604248047,0,
00:00:01.088,-4.00543212890625E-05,0.00093841552734375,0.0142765045166016,0,
00:00:01.092,-4.00543212890625E-05,0.000955581665039063,0.0142593383789063,0,
00:00:01.096,-4.00543212890625E-05,0.000949859619140625,0.0142593383789063,0,
00:00:01.1,-4.57763671875E-05,0.000944137573242188,0.0142593383789063,0,
00:00:01.104,-4.00543212890625E-05,0.000949859619140625,0.0142593383789063,0,
00:00:01.108,-4.00543212890625E-05,0.000967025756835938,0.0142707824707031,0,
00:00:01.112,-4.00543212890625E-05,0.0009613037109375,0.0142650604248047,0,
00:00:01.116,-4.00543212890625E-05,0.00093841552734375,0.0142650604248047,0,
00:00:01.12,-5.14984130859375E-05,0.000926971435546875,0.0142593383789063,0,
00:00:01.124,-4.57763671875E-05,0.0009613037109375,0.0142650604248047,0,
00:00:01.128,-3.4332275390625E-05,0.000949859619140625,0.0142478942871094,0,
00:00:01.132,-4.00543212890625E-05,0.000944137573242188,0.0142364501953125,0,
00:00:01.136,-4.00543212890625E-05,0.000955581665039063,0.0142536163330078,0,
00:00:01.14,-4.57763671875E-05,0.000955581665039063,0.0142707824707031,0,
00:00:01.144,-5.14984130859375E-05,0.000944137573242188,0.0142536163330078,0,
00:00:01.148,-4.57763671875E-05,0.000932693481445313,0.0142707824707031,0,
00:00:01.152,-4.57763671875E-05,0.000949859619140625,0.0142707824707031,0,
00:00:01.156,-4.57763671875E-05,0.000949859619140625,0.0142593383789063,0,
00:00:01.16,-4.57763671875E-05,0.000944137573242188,0.0142478942871094,0,
00:00:01.164,-4.00543212890625E-05,0.000955581665039063,0.0142478942871094,0,
00:00:01.168,-4.57763671875E-05,0.000955581665039063,0.0142593383789063,0,
00:00:01.172,-4.57763671875E-05,0.00093841552734375,0.0142478942871094,0,
00:00:01.176,-4.57763671875E-05,0.000926971435546875,0.0142707824707031,0,
00:00:01.18,-4.00543212890625E-05,0.000944137573242188,0.0142650604248047,0,
00:00:01.184,-4.00543212890625E-05,0.000967025756835938,0.0142593383789063,0,
00:00:01.188,-4.00543212890625E-05,0.000972747802734375,0.0142536163330078,0,
00:00:01.192,-4.00543212890625E-05,0.0009613037109375,0.0142536163330078,0,
00:00:01.196,-4.00543212890625E-05,0.000944137573242188,0.0142536163330078,0,
00:00:01.2,-4.57763671875E-05,0.000944137573242188,0.0142364501953125,0,
00:00:01.204,-4.57763671875E-05,0.000949859619140625,0.0142192840576172,0,
00:00:01.208,-4.00543212890625E-05,0.000955581665039063,0.0142593383789063,0,
00:00:01.212,-4.57763671875E-05,0.000949859619140625,0.0142707824707031,0,
00:00:01.216,-4.00543212890625E-05,0.000949859619140625,0.0142478942871094,0,
00:00:01.22,-4.00543212890625E-05,0.000944137573242188,0.0142421722412109,0,
00:00:01.224,-4.57763671875E-05,0.000955581665039063,0.0142421722412109,0,
00:00:01.228,-4.57763671875E-05,0.000949859619140625,0.0142536163330078,0,
00:00:01.232,-4.57763671875E-05,0.0009613037109375,0.0142364501953125,0,
00:00:01.236,-4.57763671875E-05,0.000955581665039063,0.0142478942871094,0,
00:00:01.24,-4.00543212890625E-05,0.0009613037109375,0.0142650604248047,0,
00:00:01.244,-4.00543212890625E-05,0.000967025756835938,0.0142421722412109,0,
00:00:01.248,-4.57763671875E-05,0.000949859619140625,0.0142364501953125,0,
00:00:01.252,-5.14984130859375E-05,0.000932693481445313,0.0142421722412109,0,
00:00:01.256,-5.14984130859375E-05,0.000944137573242188,0.0142536163330078,0,
00:00:01.26,-4.57763671875E-05,0.000949859619140625,0.0142421722412109,0,
00:00:01.264,-3.4332275390625E-05,0.0009613037109375,0.0142650604248047,0,
00:00:01.268,-4.00543212890625E-05,0.000967025756835938,0.0142421722412109,0,
00:00:01.272,-4.00543212890625E-05,0.000949859619140625,0.0142478942871094,0,
00:00:01.276,-5.14984130859375E-05,0.000926971435546875,0.0142421722412109,0,
00:00:01.28,-4.57763671875E-05,0.00093841552734375,0.0142421722412109,0,
00:00:01.284,-4.00543212890625E-05,0.0009613037109375,0.0142478942871094,0,
00:00:01.288,-4.00543212890625E-05,0.000978469848632813,0.0142593383789063,0,
00:00:01.292,-4.00543212890625E-05,0.000978469848632813,0.0142536163330078,0,
00:00:01.296,-4.00543212890625E-05,0.0009613037109375,0.0142421722412109,0,
00:00:01.3,-4.57763671875E-05,0.000955581665039063,0.0142307281494141,0,
00:00:01.304,-4.57763671875E-05,0.000944137573242188,0.0142364501953125,0,
00:00:01.308,-4.00543212890625E-05,0.000932693481445313,0.0142307281494141,0,
00:00:01.312,-2.86102294921875E-05,0.000944137573242188,0.0142021179199219,0,
00:00:01.316,-5.14984130859375E-05,0.0009613037109375,0.0142536163330078,0,
00:00:01.32,-5.14984130859375E-05,0.00098419189453125,0.0142478942871094,0,
00:00:01.324,-4.57763671875E-05,0.0009613037109375,0.0142707824707031,0,
00:00:01.328,-4.57763671875E-05,0.00093841552734375,0.0142478942871094,0,
00:00:01.332,-4.00543212890625E-05,0.000955581665039063,0.0142192840576172,0,
00:00:01.336,-4.57763671875E-05,0.000972747802734375,0.0142478942871094,0,
00:00:01.34,-5.14984130859375E-05,0.0009613037109375,0.0142593383789063,0,
00:00:01.344,-5.14984130859375E-05,0.000949859619140625,0.0142593383789063,0,
00:00:01.348,-4.00543212890625E-05,0.000972747802734375,0.0142364501953125,0,
00:00:01.352,-2.86102294921875E-05,0.00098419189453125,0.0142250061035156,0,
00:00:01.356,-4.57763671875E-05,0.000949859619140625,0.0142364501953125,0,
00:00:01.36,-5.14984130859375E-05,0.000949859619140625,0.0142364501953125,0,
00:00:01.364,-5.14984130859375E-05,0.000955581665039063,0.0142078399658203,0,
00:00:01.368,-5.7220458984375E-05,0.000932693481445313,0.0142421722412109,0,
00:00:01.372,-5.14984130859375E-05,0.000926971435546875,0.0142536163330078,0,
00:00:01.376,-4.00543212890625E-05,0.000972747802734375,0.0142421722412109,0,
00:00:01.38,-4.57763671875E-05,0.000972747802734375,0.0142364501953125,0,
00:00:01.384,-4.00543212890625E-05,0.0009613037109375,0.0142192840576172,0,
00:00:01.388,-4.57763671875E-05,0.000955581665039063,0.0142421722412109,0,
00:00:01.392,-4.57763671875E-05,0.000955581665039063,0.0142364501953125,0,
00:00:01.396,-4.57763671875E-05,0.000955581665039063,0.0142421722412109,0,
00:00:01.4,-4.57763671875E-05,0.000967025756835938,0.0142250061035156,0,
00:00:01.404,-4.57763671875E-05,0.000967025756835938,0.0142192840576172,0,
00:00:01.408,-4.00543212890625E-05,0.000967025756835938,0.0142192840576172,0,
00:00:01.412,-5.14984130859375E-05,0.000955581665039063,0.0142478942871094,0,
00:00:01.416,-4.57763671875E-05,0.000972747802734375,0.0142135620117188,0,
00:00:01.42,-4.57763671875E-05,0.000967025756835938,0.0142364501953125,0,
00:00:01.424,-5.14984130859375E-05,0.000949859619140625,0.0142364501953125,0,
00:00:01.428,-4.00543212890625E-05,0.000967025756835938,0.0142192840576172,0,
00:00:01.432,-4.00543212890625E-05,0.000972747802734375,0.0142364501953125,0,
00:00:01.436,-4.00543212890625E-05,0.000972747802734375,0.0142250061035156,0,
00:00:01.44,-4.00543212890625E-05,0.000967025756835938,0.0142421722412109,0,
00:00:01.444,-4.00543212890625E-05,0.000972747802734375,0.0142364501953125,0,
00:00:01.448,-4.57763671875E-05,0.0009613037109375,0.0142192840576172,0,
00:00:01.452,-5.14984130859375E-05,0.0009613037109375,0.0142192840576172,0,
00:00:01.456,-4.00543212890625E-05,0.0009613037109375,0.0142078399658203,0,
00:00:01.46,-4.00543212890625E-05,0.0009613037109375,0.0142078399658203,0,
00:00:01.464,-4.57763671875E-05,0.000972747802734375,0.0142421722412109,0,
00:00:01.468,-5.14984130859375E-05,0.000978469848632813,0.0142478942871094,0,
00:00:01.472,-5.7220458984375E-05,0.000955581665039063,0.0142192840576172,0,
00:00:01.476,-4.57763671875E-05,0.000944137573242188,0.0142078399658203,0,
00:00:01.48,-4.57763671875E-05,0.00093841552734375,0.0142307281494141,0,
00:00:01.484,-4.00543212890625E-05,0.000978469848632813,0.0142307281494141,0,
00:00:01.488,-4.00543212890625E-05,0.000989913940429688,0.0142421722412109,0,
00:00:01.492,-4.00543212890625E-05,0.000972747802734375,0.0142250061035156,0,
00:00:01.496,-4.00543212890625E-05,0.000978469848632813,0.0142135620117188,0,
00:00:01.5,-4.57763671875E-05,0.00098419189453125,0.0142250061035156,0,
00:00:01.504,-4.57763671875E-05,0.000978469848632813,0.0142192840576172,0,
00:00:01.508,-4.57763671875E-05,0.0009613037109375,0.0142021179199219,0,
00:00:01.512,-4.57763671875E-05,0.0009613037109375,0.0142192840576172,0,
00:00:01.516,-4.57763671875E-05,0.000955581665039063,0.0142192840576172,0,
00:00:01.52,-4.57763671875E-05,0.000972747802734375,0.0142135620117188,0,
00:00:01.524,-5.14984130859375E-05,0.000978469848632813,0.0142250061035156,0,
00:00:01.528,-4.57763671875E-05,0.000978469848632813,0.0142250061035156,0,
00:00:01.532,-5.14984130859375E-05,0.000972747802734375,0.0142250061035156,0,
00:00:01.536,-5.14984130859375E-05,0.00098419189453125,0.0142250061035156,0,
00:00:01.54,-4.57763671875E-05,0.000967025756835938,0.0141963958740234,0,
00:00:01.544,-4.00543212890625E-05,0.000955581665039063,0.014190673828125,0,
00:00:01.548,-4.57763671875E-05,0.000967025756835938,0.0142135620117188,0,
00:00:01.552,-5.14984130859375E-05,0.000978469848632813,0.0142364501953125,0,
00:00:01.556,-5.14984130859375E-05,0.000967025756835938,0.0142250061035156,0,
00:00:01.56,-5.14984130859375E-05,0.0009613037109375,0.0141963958740234,0,
00:00:01.564,-4.00543212890625E-05,0.000955581665039063,0.0142021179199219,0,
00:00:01.568,-4.57763671875E-05,0.000978469848632813,0.0142364501953125,0,
00:00:01.572,-4.57763671875E-05,0.000972747802734375,0.0142135620117188,0,
00:00:01.576,-4.57763671875E-05,0.0009613037109375,0.0142078399658203,0,
00:00:01.58,-4.57763671875E-05,0.000972747802734375,0.0141849517822266,0,
00:00:01.584,-5.14984130859375E-05,0.0009613037109375,0.0142192840576172,0,
00:00:01.588,-5.14984130859375E-05,0.000972747802734375,0.0142192840576172,0,
00:00:01.592,-4.57763671875E-05,0.00098419189453125,0.0142135620117188,0,
00:00:01.596,-4.57763671875E-05,0.000972747802734375,0.0142021179199219,0,
00:00:01.6,-4.57763671875E-05,0.000949859619140625,0.0142078399658203,0,
00:00:01.604,-4.00543212890625E-05,0.000978469848632813,0.0141963958740234,0,
00:00:01.608,-4.57763671875E-05,0.000989913940429688,0.0142078399658203,0,
00:00:01.612,-4.00543212890625E-05,0.000978469848632813,0.0141963958740234,0,
00:00:01.616,-4.57763671875E-05,0.000972747802734375,0.0141792297363281,0,
00:00:01.62,-5.14984130859375E-05,0.000967025756835938,0.0142478942871094,0,
00:00:01.624,-4.57763671875E-05,0.000978469848632813,0.0142250061035156,0,
00:00:01.628,-4.57763671875E-05,0.000978469848632813,0.0142078399658203,0,
00:00:01.632,-4.57763671875E-05,0.000967025756835938,0.0141963958740234,0,
00:00:01.636,-4.57763671875E-05,0.000972747802734375,0.0141792297363281,0,
00:00:01.64,-4.57763671875E-05,0.000978469848632813,0.0142078399658203,0,
00:00:01.644,-4.57763671875E-05,0.000978469848632813,0.0142135620117188,0,
00:00:01.648,-4.00543212890625E-05,0.000989913940429688,0.0142078399658203,0,
00:00:01.652,-4.00543212890625E-05,0.000972747802734375,0.0141963958740234,0,
00:00:01.656,-4.00543212890625E-05,0.000972747802734375,0.0141963958740234,0,
00:00:01.66,-4.57763671875E-05,0.000972747802734375,0.0142021179199219,0,
00:00:01.664,-5.14984130859375E-05,0.000955581665039063,0.0141849517822266,0,
00:00:01.668,-4.57763671875E-05,0.0009613037109375,0.0141677856445313,0,
00:00:01.672,-4.00543212890625E-05,0.000978469848632813,0.014190673828125,0,
00:00:01.676,-2.86102294921875E-05,0.000995635986328125,0.0142021179199219,0,
00:00:01.68,-4.00543212890625E-05,0.000989913940429688,0.0142135620117188,0,
00:00:01.684,-5.14984130859375E-05,0.000955581665039063,0.0142078399658203,0,
00:00:01.688,-4.57763671875E-05,0.0009613037109375,0.014190673828125,0,
00:00:01.692,-4.00543212890625E-05,0.00100135803222656,0.0141963958740234,0,
00:00:01.696,-4.00543212890625E-05,0.00098419189453125,0.0141792297363281,0,
00:00:01.7,-4.57763671875E-05,0.000978469848632813,0.0142078399658203,0,
00:00:01.704,-4.00543212890625E-05,0.00098419189453125,0.0142078399658203,0,
00:00:01.708,-4.57763671875E-05,0.000972747802734375,0.014190673828125,0,
00:00:01.712,-4.57763671875E-05,0.000978469848632813,0.0141963958740234,0,
00:00:01.716,-4.57763671875E-05,0.000978469848632813,0.0141735076904297,0,
00:00:01.72,-5.14984130859375E-05,0.000978469848632813,0.0142078399658203,0,
00:00:01.724,-4.57763671875E-05,0.000978469848632813,0.014190673828125,0,
00:00:01.728,-3.4332275390625E-05,0.000989913940429688,0.014190673828125,0,
00:00:01.732,-4.00543212890625E-05,0.00100135803222656,0.0141792297363281,0,
00:00:01.736,-4.57763671875E-05,0.000989913940429688,0.0141620635986328,0,
00:00:01.74,-4.57763671875E-05,0.00098419189453125,0.0142135620117188,0,
00:00:01.744,-4.57763671875E-05,0.000972747802734375,0.0141963958740234,0,
00:00:01.748,-5.14984130859375E-05,0.0009613037109375,0.0141849517822266,0,
00:00:01.752,-4.57763671875E-05,0.000972747802734375,0.0141792297363281,0,
00:00:01.756,-5.14984130859375E-05,0.00098419189453125,0.0141735076904297,0,
00:00:01.76,-5.14984130859375E-05,0.000989913940429688,0.0142078399658203,0,
00:00:01.764,-4.00543212890625E-05,0.000978469848632813,0.0142021179199219,0,
00:00:01.768,-5.14984130859375E-05,0.000972747802734375,0.0141792297363281,0,
00:00:01.772,-4.57763671875E-05,0.000978469848632813,0.0141677856445313,0,
00:00:01.776,-4.00543212890625E-05,0.000972747802734375,0.0141563415527344,0,
00:00:01.78,-4.57763671875E-05,0.000989913940429688,0.0141792297363281,0,
00:00:01.784,-4.57763671875E-05,0.00100135803222656,0.0141963958740234,0,
00:00:01.788,-4.00543212890625E-05,0.000995635986328125,0.0141849517822266,0,
00:00:01.792,-5.14984130859375E-05,0.000989913940429688,0.014190673828125,0,
00:00:01.796,-5.14984130859375E-05,0.000978469848632813,0.0141849517822266,0,
00:00:01.8,-4.00543212890625E-05,0.000967025756835938,0.0141735076904297,0,
00:00:01.804,-5.7220458984375E-05,0.0009613037109375,0.0141735076904297,0,
00:00:01.808,-4.57763671875E-05,0.000995635986328125,0.0141620635986328,0,
00:00:01.812,-4.57763671875E-05,0.00100135803222656,0.0141963958740234,0,
00:00:01.816,-4.00543212890625E-05,0.000995635986328125,0.0141849517822266,0,
00:00:01.82,-4.57763671875E-05,0.00098419189453125,0.0141677856445313,0,
00:00:01.824,-5.14984130859375E-05,0.000978469848632813,0.0141849517822266,0,
00:00:01.828,-5.14984130859375E-05,0.00098419189453125,0.0141735076904297,0,
00:00:01.832,-4.57763671875E-05,0.000995635986328125,0.0141677856445313,0,
00:00:01.836,-4.57763671875E-05,0.000989913940429688,0.0141792297363281,0,
00:00:01.84,-4.57763671875E-05,0.000995635986328125,0.014190673828125,0,
00:00:01.844,-5.14984130859375E-05,0.000995635986328125,0.0141735076904297,0,
00:00:01.848,-5.7220458984375E-05,0.000967025756835938,0.0141620635986328,0,
00:00:01.852,-5.14984130859375E-05,0.0009613037109375,0.0141677856445313,0,
00:00:01.856,-4.57763671875E-05,0.000995635986328125,0.0141849517822266,0,
00:00:01.86,-5.14984130859375E-05,0.000989913940429688,0.0141963958740234,0,
00:00:01.864,-5.14984130859375E-05,0.0009613037109375,0.0141792297363281,0,
00:00:01.868,-4.00543212890625E-05,0.000989913940429688,0.0141677856445313,0,
00:00:01.872,-5.14984130859375E-05,0.00098419189453125,0.0141563415527344,0,
00:00:01.876,-5.14984130859375E-05,0.000989913940429688,0.0141735076904297,0,
00:00:01.88,-4.00543212890625E-05,0.000995635986328125,0.0141677856445313,0,
00:00:01.884,-4.00543212890625E-05,0.000995635986328125,0.0141735076904297,0,
00:00:01.888,-4.00543212890625E-05,0.000995635986328125,0.0141620635986328,0,
00:00:01.892,-4.00543212890625E-05,0.000989913940429688,0.0141735076904297,0,
00:00:01.896,-5.14984130859375E-05,0.000989913940429688,0.0141735076904297,0,
00:00:01.9,-5.14984130859375E-05,0.000972747802734375,0.0141677856445313,0,
00:00:01.904,-5.14984130859375E-05,0.0009613037109375,0.0141792297363281,0,
00:00:01.908,-5.14984130859375E-05,0.000972747802734375,0.0141620635986328,0,
00:00:01.912,-5.14984130859375E-05,0.000978469848632813,0.0141391754150391,0,
00:00:01.916,-4.00543212890625E-05,0.000989913940429688,0.0141391754150391,0,
00:00:01.92,-4.00543212890625E-05,0.000995635986328125,0.0141735076904297,0,
00:00:01.924,-4.00543212890625E-05,0.000989913940429688,0.0141620635986328,0,
00:00:01.928,-4.57763671875E-05,0.00098419189453125,0.0141506195068359,0,
00:00:01.932,-5.7220458984375E-05,0.00098419189453125,0.014190673828125,0,
00:00:01.936,-5.14984130859375E-05,0.000978469848632813,0.0141792297363281,0,
00:00:01.94,-5.7220458984375E-05,0.00098419189453125,0.0141677856445313,0,
00:00:01.944,-5.7220458984375E-05,0.0009613037109375,0.0141735076904297,0,
00:00:01.948,-4.57763671875E-05,0.00098419189453125,0.0141620635986328,0,
00:00:01.952,-4.00543212890625E-05,0.00100135803222656,0.0141620635986328,0,
00:00:01.956,-4.57763671875E-05,0.000995635986328125,0.0141563415527344,0,
00:00:01.96,-4.57763671875E-05,0.00098419189453125,0.0141506195068359,0,
00:00:01.964,-4.00543212890625E-05,0.000989913940429688,0.0141448974609375,0,
00:00:01.968,-5.14984130859375E-05,0.000989913940429688,0.0141563415527344,0,
00:00:01.972,-5.14984130859375E-05,0.000978469848632813,0.0141506195068359,0,
00:00:01.976,-5.14984130859375E-05,0.00098419189453125,0.0141506195068359,0,
00:00:01.98,-5.14984130859375E-05,0.00098419189453125,0.0141677856445313,0,
00:00:01.984,-5.7220458984375E-05,0.00098419189453125,0.0141620635986328,0,
00:00:01.988,-5.7220458984375E-05,0.00098419189453125,0.0141334533691406,0,
00:00:01.992,-4.57763671875E-05,0.000989913940429688,0.0141448974609375,0,
00:00:01.996,-5.14984130859375E-05,0.00098419189453125,0.0141448974609375,0,
00:00:02,-5.7220458984375E-05,0.000978469848632813,0.0141792297363281,0,
00:00:02.004,-5.14984130859375E-05,0.000978469848632813,0.0141563415527344,0,
00:00:02.008,-5.14984130859375E-05,0.000978469848632813,0.0141448974609375,0,
00:00:02.012,-5.7220458984375E-05,0.000978469848632813,0.0141448974609375,0,
00:00:02.016,-5.14984130859375E-05,0.000978469848632813,0.0141620635986328,0,
00:00:02.02,-5.14984130859375E-05,0.00098419189453125,0.0141506195068359,0,
00:00:02.024,-4.57763671875E-05,0.000989913940429688,0.0141277313232422,0,
00:00:02.028,-4.57763671875E-05,0.001007080078125,0.0141563415527344,0,
00:00:02.032,-4.57763671875E-05,0.000995635986328125,0.0141620635986328,0,
00:00:02.036,-5.14984130859375E-05,0.000989913940429688,0.0141506195068359,0,
00:00:02.04,-5.14984130859375E-05,0.00098419189453125,0.0141506195068359,0,
00:00:02.044,-5.7220458984375E-05,0.000978469848632813,0.0141506195068359,0,
00:00:02.048,-5.14984130859375E-05,0.000978469848632813,0.0141334533691406,0,
00:00:02.052,-5.7220458984375E-05,0.000978469848632813,0.0141506195068359,0,
00:00:02.056,-5.7220458984375E-05,0.0009613037109375,0.0141277313232422,0,
00:00:02.06,-5.7220458984375E-05,0.000972747802734375,0.0141448974609375,0,
00:00:02.064,-4.57763671875E-05,0.00101280212402344,0.0141334533691406,0,
00:00:02.068,-5.14984130859375E-05,0.001007080078125,0.0141391754150391,0,
00:00:02.072,-4.57763671875E-05,0.001007080078125,0.0141391754150391,0,
00:00:02.076,-4.57763671875E-05,0.001007080078125,0.0141391754150391,0,
00:00:02.08,-5.14984130859375E-05,0.00100135803222656,0.0141735076904297,0,
00:00:02.084,-5.14984130859375E-05,0.000995635986328125,0.0141448974609375,0,
00:00:02.088,-5.14984130859375E-05,0.000995635986328125,0.0141334533691406,0,
00:00:02.092,-5.7220458984375E-05,0.000978469848632813,0.0141391754150391,0,
00:00:02.096,-6.866455078125E-05,0.000955581665039063,0.0141391754150391,0,
00:00:02.1,-5.7220458984375E-05,0.000972747802734375,0.0141334533691406,0,
00:00:02.104,-4.57763671875E-05,0.00100135803222656,0.0141563415527344,0,
00:00:02.108,-4.00543212890625E-05,0.00101280212402344,0.0141391754150391,0,
00:00:02.112,-5.14984130859375E-05,0.001007080078125,0.0141334533691406,0,
00:00:02.116,-5.7220458984375E-05,0.00100135803222656,0.0141162872314453,0,
00:00:02.12,-5.14984130859375E-05,0.000995635986328125,0.0141334533691406,0,
00:00:02.124,-5.14984130859375E-05,0.000995635986328125,0.0141448974609375,0,
00:00:02.128,-5.14984130859375E-05,0.000995635986328125,0.0141334533691406,0,
00:00:02.132,-5.14984130859375E-05,0.000978469848632813,0.0141391754150391,0,
00:00:02.136,-5.7220458984375E-05,0.000978469848632813,0.0141391754150391,0,
00:00:02.14,-5.7220458984375E-05,0.00098419189453125,0.0141277313232422,0,
00:00:02.144,-4.57763671875E-05,0.000989913940429688,0.0140876770019531,0,
00:00:02.148,-5.14984130859375E-05,0.00098419189453125,0.0141105651855469,0,
00:00:02.152,-5.14984130859375E-05,0.00100135803222656,0.0141506195068359,0,
00:00:02.156,-5.14984130859375E-05,0.00101280212402344,0.0141391754150391,0,
00:00:02.16,-5.7220458984375E-05,0.00100135803222656,0.0141620635986328,0,
00:00:02.164,-5.14984130859375E-05,0.00100135803222656,0.0141506195068359,0,
00:00:02.168,-4.57763671875E-05,0.001007080078125,0.0141391754150391,0,
00:00:02.172,-5.14984130859375E-05,0.000995635986328125,0.0141334533691406,0,
00:00:02.176,-5.7220458984375E-05,0.000989913940429688,0.0141334533691406,0,
00:00:02.18,-6.29425048828125E-05,0.00098419189453125,0.0141334533691406,0,
00:00:02.184,-5.7220458984375E-05,0.000995635986328125,0.0141334533691406,0,
00:00:02.188,-5.14984130859375E-05,0.001007080078125,0.0141220092773438,0,
00:00:02.192,-5.14984130859375E-05,0.000995635986328125,0.01409912109375,0,
00:00:02.196,-5.14984130859375E-05,0.00100135803222656,0.0141334533691406,0,
00:00:02.2,-5.14984130859375E-05,0.00100135803222656,0.0141162872314453,0,
00:00:02.204,-5.7220458984375E-05,0.00098419189453125,0.0141277313232422,0,
00:00:02.208,-5.7220458984375E-05,0.000989913940429688,0.0141391754150391,0,
00:00:02.212,-5.7220458984375E-05,0.00100135803222656,0.0141105651855469,0,
00:00:02.216,-5.7220458984375E-05,0.000995635986328125,0.0141391754150391,0,
00:00:02.22,-6.29425048828125E-05,0.00098419189453125,0.0141277313232422,0,
00:00:02.224,-5.14984130859375E-05,0.000995635986328125,0.0141105651855469,0,
00:00:02.228,-5.14984130859375E-05,0.00101280212402344,0.0141277313232422,0,
00:00:02.232,-5.14984130859375E-05,0.001007080078125,0.0141334533691406,0,
00:00:02.236,-5.14984130859375E-05,0.000995635986328125,0.0141334533691406,0,
00:00:02.24,-5.7220458984375E-05,0.000995635986328125,0.0141220092773438,0,
00:00:02.244,-6.29425048828125E-05,0.000978469848632813,0.0141162872314453,0,
00:00:02.248,-5.7220458984375E-05,0.000995635986328125,0.0141334533691406,0,
00:00:02.252,-5.14984130859375E-05,0.00100135803222656,0.0141105651855469,0,
00:00:02.256,-5.7220458984375E-05,0.00100135803222656,0.0141277313232422,0,
00:00:02.26,-5.14984130859375E-05,0.00100135803222656,0.0141277313232422,0,
00:00:02.264,-5.14984130859375E-05,0.00100135803222656,0.0141220092773438,0,
00:00:02.268,-5.7220458984375E-05,0.00100135803222656,0.0141277313232422,0,
00:00:02.272,-5.14984130859375E-05,0.000995635986328125,0.0141220092773438,0,
00:00:02.276,-6.29425048828125E-05,0.000995635986328125,0.0141105651855469,0,
00:00:02.28,-5.14984130859375E-05,0.00101280212402344,0.01409912109375,0,
00:00:02.284,-4.57763671875E-05,0.001007080078125,0.0141334533691406,0,
00:00:02.288,-5.14984130859375E-05,0.000995635986328125,0.0141277313232422,0,
00:00:02.292,-5.14984130859375E-05,0.000995635986328125,0.0141162872314453,0,
00:00:02.296,-5.14984130859375E-05,0.000995635986328125,0.0140933990478516,0,
00:00:02.3,-5.7220458984375E-05,0.00098419189453125,0.0140933990478516,0,
00:00:02.304,-5.7220458984375E-05,0.000989913940429688,0.0141334533691406,0,
00:00:02.308,-5.7220458984375E-05,0.000989913940429688,0.0141220092773438,0,
00:00:02.312,-5.7220458984375E-05,0.00100135803222656,0.0141162872314453,0,
00:00:02.316,-5.7220458984375E-05,0.00100135803222656,0.0141162872314453,0,
00:00:02.32,-5.7220458984375E-05,0.000995635986328125,0.0141048431396484,0,
00:00:02.324,-6.866455078125E-05,0.000989913940429688,0.0141220092773438,0,
00:00:02.328,-7.43865966796875E-05,0.000989913940429688,0.0141162872314453,0,
00:00:02.332,-5.7220458984375E-05,0.00101280212402344,0.0141277313232422,0,
00:00:02.336,-5.14984130859375E-05,0.00101852416992188,0.0141105651855469,0,
00:00:02.34,-5.7220458984375E-05,0.00100135803222656,0.0141220092773438,0,
00:00:02.344,-5.7220458984375E-05,0.00100135803222656,0.0141162872314453,0,
00:00:02.348,-5.7220458984375E-05,0.00100135803222656,0.0141162872314453,0,
00:00:02.352,-6.29425048828125E-05,0.00100135803222656,0.0141105651855469,0,
00:00:02.356,-5.7220458984375E-05,0.000995635986328125,0.0140933990478516,0,
00:00:02.36,-5.7220458984375E-05,0.000995635986328125,0.0140819549560547,0,
00:00:02.364,-6.866455078125E-05,0.000978469848632813,0.0141220092773438,0,
00:00:02.368,-6.29425048828125E-05,0.000989913940429688,0.0141105651855469,0,
00:00:02.372,-5.14984130859375E-05,0.00100135803222656,0.0141048431396484,0,
00:00:02.376,-5.7220458984375E-05,0.00101280212402344,0.0141048431396484,0,
00:00:02.38,-5.14984130859375E-05,0.001007080078125,0.0140933990478516,0,
00:00:02.384,-5.14984130859375E-05,0.001007080078125,0.0141277313232422,0,
00:00:02.388,-5.7220458984375E-05,0.00100135803222656,0.0141048431396484,0,
00:00:02.392,-6.29425048828125E-05,0.000995635986328125,0.0140876770019531,0,
00:00:02.396,-6.29425048828125E-05,0.000995635986328125,0.0141105651855469,0,
00:00:02.4,-5.7220458984375E-05,0.00100135803222656,0.0141048431396484,0,
00:00:02.404,-5.14984130859375E-05,0.001007080078125,0.0140933990478516,0,
00:00:02.408,-5.14984130859375E-05,0.000989913940429688,0.0141048431396484,0,
00:00:02.412,-6.29425048828125E-05,0.00100135803222656,0.0140876770019531,0,
00:00:02.416,-6.866455078125E-05,0.000995635986328125,0.0141048431396484,0,
00:00:02.42,-6.29425048828125E-05,0.000995635986328125,0.0141162872314453,0,
00:00:02.424,-5.7220458984375E-05,0.00101280212402344,0.01409912109375,0,
00:00:02.428,-5.7220458984375E-05,0.001007080078125,0.0140933990478516,0,
00:00:02.432,-6.29425048828125E-05,0.000989913940429688,0.0140819549560547,0,
00:00:02.436,-6.29425048828125E-05,0.001007080078125,0.0141105651855469,0,
00:00:02.44,-5.7220458984375E-05,0.001007080078125,0.0140876770019531,0,
00:00:02.444,-6.29425048828125E-05,0.000995635986328125,0.0141048431396484,0,
00:00:02.448,-6.866455078125E-05,0.000989913940429688,0.0141162872314453,0,
00:00:02.452,-7.43865966796875E-05,0.00098419189453125,0.0140933990478516,0,
00:00:02.456,-6.29425048828125E-05,0.000995635986328125,0.0140876770019531,0,
00:00:02.46,-6.29425048828125E-05,0.00101280212402344,0.0141048431396484,0,
00:00:02.464,-5.7220458984375E-05,0.00101280212402344,0.01409912109375,0,
00:00:02.468,-5.7220458984375E-05,0.00101280212402344,0.0140819549560547,0,
00:00:02.472,-5.14984130859375E-05,0.00101852416992188,0.0140876770019531,0,
00:00:02.476,-5.7220458984375E-05,0.00101280212402344,0.0140933990478516,0,
00:00:02.48,-6.29425048828125E-05,0.00100135803222656,0.0141162872314453,0,
00:00:02.484,-6.29425048828125E-05,0.00100135803222656,0.0141048431396484,0,
00:00:02.488,-6.29425048828125E-05,0.001007080078125,0.01409912109375,0,
00:00:02.492,-6.29425048828125E-05,0.00102424621582031,0.0140762329101563,0,
00:00:02.496,-5.14984130859375E-05,0.00101280212402344,0.0140933990478516,0,
00:00:02.5,-5.14984130859375E-05,0.00100135803222656,0.0140819549560547,0,
00:00:02.504,-6.29425048828125E-05,0.000995635986328125,0.0140876770019531,0,
00:00:02.508,-5.7220458984375E-05,0.001007080078125,0.0141105651855469,0,
00:00:02.512,-5.7220458984375E-05,0.001007080078125,0.0140933990478516,0,
00:00:02.516,-5.7220458984375E-05,0.00100135803222656,0.0140876770019531,0,
00:00:02.52,-6.29425048828125E-05,0.00100135803222656,0.0140933990478516,0,
00:00:02.524,-6.29425048828125E-05,0.001007080078125,0.0140876770019531,0,
00:00:02.528,-5.7220458984375E-05,0.00101852416992188,0.0140933990478516,0,
00:00:02.532,-6.29425048828125E-05,0.00101280212402344,0.0140819549560547,0,
00:00:02.536,-6.29425048828125E-05,0.001007080078125,0.0140876770019531,0,
00:00:02.54,-6.29425048828125E-05,0.00101280212402344,0.0140876770019531,0,
00:00:02.544,-5.7220458984375E-05,0.00101280212402344,0.01409912109375,0,
00:00:02.548,-6.29425048828125E-05,0.001007080078125,0.0140876770019531,0,
00:00:02.552,-5.7220458984375E-05,0.001007080078125,0.0140819549560547,0,
00:00:02.556,-5.7220458984375E-05,0.00100135803222656,0.0140647888183594,0,
00:00:02.56,-6.866455078125E-05,0.001007080078125,0.0141105651855469,0,
00:00:02.564,-5.7220458984375E-05,0.00102424621582031,0.0140876770019531,0,
00:00:02.568,-5.7220458984375E-05,0.00102424621582031,0.0140876770019531,0,
00:00:02.572,-5.7220458984375E-05,0.00101280212402344,0.0140876770019531,0,
00:00:02.576,-5.14984130859375E-05,0.001007080078125,0.0140647888183594,0,
00:00:02.58,-6.29425048828125E-05,0.00100135803222656,0.0140819549560547,0,
00:00:02.584,-6.29425048828125E-05,0.00101280212402344,0.0140647888183594,0,
00:00:02.588,-5.7220458984375E-05,0.00101852416992188,0.0140705108642578,0,
00:00:02.592,-5.7220458984375E-05,0.00101280212402344,0.0141105651855469,0,
00:00:02.596,-5.7220458984375E-05,0.00101852416992188,0.0140876770019531,0,
00:00:02.6,-5.7220458984375E-05,0.00101852416992188,0.0140933990478516,0,
00:00:02.604,-5.7220458984375E-05,0.001007080078125,0.0140876770019531,0,
00:00:02.608,-6.29425048828125E-05,0.00100135803222656,0.0140819549560547,0,
00:00:02.612,-6.29425048828125E-05,0.00100135803222656,0.0140819549560547,0,
00:00:02.616,-6.29425048828125E-05,0.001007080078125,0.0140590667724609,0,
00:00:02.62,-6.29425048828125E-05,0.00101280212402344,0.0140933990478516,0,
00:00:02.624,-6.29425048828125E-05,0.001007080078125,0.0140876770019531,0,
00:00:02.628,-5.7220458984375E-05,0.00101852416992188,0.0140876770019531,0,
00:00:02.632,-5.14984130859375E-05,0.00102424621582031,0.0140705108642578,0,
00:00:02.636,-6.29425048828125E-05,0.00101852416992188,0.0140705108642578,0,
00:00:02.64,-6.29425048828125E-05,0.00101852416992188,0.0140876770019531,0,
00:00:02.644,-6.866455078125E-05,0.00101852416992188,0.0140819549560547,0,
00:00:02.648,-6.866455078125E-05,0.00101280212402344,0.0140647888183594,0,
00:00:02.652,-6.866455078125E-05,0.00101852416992188,0.0140819549560547,0,
00:00:02.656,-6.866455078125E-05,0.00101852416992188,0.0140762329101563,0,
00:00:02.66,-6.866455078125E-05,0.00101280212402344,0.0140819549560547,0,
00:00:02.664,-5.7220458984375E-05,0.00101280212402344,0.0140705108642578,0,
00:00:02.668,-5.7220458984375E-05,0.00101852416992188,0.0140590667724609,0,
00:00:02.672,-6.29425048828125E-05,0.00101852416992188,0.0140705108642578,0,
00:00:02.676,-6.29425048828125E-05,0.00101280212402344,0.0140647888183594,0,
00:00:02.68,-5.7220458984375E-05,0.00101280212402344,0.0140705108642578,0,
00:00:02.684,-5.7220458984375E-05,0.00101280212402344,0.0140705108642578,0,
00:00:02.688,-6.29425048828125E-05,0.00101852416992188,0.0140819549560547,0,
00:00:02.692,-5.14984130859375E-05,0.00103569030761719,0.0140590667724609,0,
00:00:02.696,-5.7220458984375E-05,0.00102996826171875,0.0140705108642578,0,
00:00:02.7,-5.7220458984375E-05,0.00101280212402344,0.0140819549560547,0,
00:00:02.704,-6.866455078125E-05,0.00100135803222656,0.0140705108642578,0,
00:00:02.708,-6.866455078125E-05,0.001007080078125,0.0140647888183594,0,
00:00:02.712,-5.7220458984375E-05,0.00102424621582031,0.0140762329101563,0,
00:00:02.716,-5.7220458984375E-05,0.00102996826171875,0.0140705108642578,0,
00:00:02.72,-6.866455078125E-05,0.000995635986328125,0.0140705108642578,0,
00:00:02.724,-6.866455078125E-05,0.001007080078125,0.0140705108642578,0,
00:00:02.728,-5.7220458984375E-05,0.00102424621582031,0.0140590667724609,0,
00:00:02.732,-6.29425048828125E-05,0.00102996826171875,0.0140590667724609,0,
00:00:02.736,-6.29425048828125E-05,0.00101852416992188,0.0140533447265625,0,
00:00:02.74,-7.43865966796875E-05,0.000995635986328125,0.0140647888183594,0,
00:00:02.744,-6.29425048828125E-05,0.001007080078125,0.0140705108642578,0,
00:00:02.748,-6.29425048828125E-05,0.00102996826171875,0.0140361785888672,0,
00:00:02.752,-6.866455078125E-05,0.00101852416992188,0.0140361785888672,0,
00:00:02.756,-5.7220458984375E-05,0.00101280212402344,0.0140647888183594,0,
00:00:02.76,-6.29425048828125E-05,0.00101280212402344,0.0140647888183594,0,
00:00:02.764,-6.866455078125E-05,0.00101852416992188,0.0140419006347656,0,
00:00:02.768,-6.866455078125E-05,0.00101852416992188,0.0140762329101563,0,
00:00:02.772,-6.29425048828125E-05,0.00104141235351563,0.0140762329101563,0,
00:00:02.776,-5.7220458984375E-05,0.00104141235351563,0.0140590667724609,0,
00:00:02.78,-6.29425048828125E-05,0.00101280212402344,0.0140533447265625,0,
00:00:02.784,-6.866455078125E-05,0.00100135803222656,0.0140705108642578,0,
00:00:02.788,-6.29425048828125E-05,0.00101852416992188,0.0140476226806641,0,
00:00:02.792,-6.29425048828125E-05,0.00103569030761719,0.0140476226806641,0,
00:00:02.796,-6.29425048828125E-05,0.00102424621582031,0.0140533447265625,0,
00:00:02.8,-6.866455078125E-05,0.001007080078125,0.0140590667724609,0,
00:00:02.804,-7.43865966796875E-05,0.00101280212402344,0.0140590667724609,0,
00:00:02.808,-5.7220458984375E-05,0.00104141235351563,0.0140361785888672,0,
00:00:02.812,-5.7220458984375E-05,0.00102996826171875,0.0140476226806641,0,
00:00:02.816,-5.7220458984375E-05,0.00101852416992188,0.0140476226806641,0,
00:00:02.82,-6.866455078125E-05,0.001007080078125,0.0140819549560547,0,
00:00:02.824,-7.43865966796875E-05,0.000989913940429688,0.0140647888183594,0,
00:00:02.828,-6.29425048828125E-05,0.001007080078125,0.0140533447265625,0,
00:00:02.832,-6.29425048828125E-05,0.00103569030761719,0.0140419006347656,0,
00:00:02.836,-5.7220458984375E-05,0.00104141235351563,0.0140476226806641,0,
00:00:02.84,-5.7220458984375E-05,0.00104141235351563,0.0140361785888672,0,
00:00:02.844,-6.866455078125E-05,0.00102424621582031,0.0140590667724609,0,
00:00:02.848,-6.866455078125E-05,0.001007080078125,0.0140533447265625,0,
00:00:02.852,-6.29425048828125E-05,0.00101852416992188,0.0140247344970703,0,
00:00:02.856,-6.29425048828125E-05,0.00101852416992188,0.0140533447265625,0,
00:00:02.86,-6.29425048828125E-05,0.00101852416992188,0.0140247344970703,0,
00:00:02.864,-7.43865966796875E-05,0.00101852416992188,0.0140647888183594,0,
00:00:02.868,-5.7220458984375E-05,0.00102424621582031,0.0140247344970703,0,
00:00:02.872,-6.866455078125E-05,0.00101852416992188,0.0140533447265625,0,
00:00:02.876,-6.866455078125E-05,0.00101280212402344,0.0140476226806641,0,
00:00:02.88,-6.866455078125E-05,0.00101280212402344,0.0140476226806641,0,
00:00:02.884,-6.29425048828125E-05,0.00102996826171875,0.0140419006347656,0,
00:00:02.888,-5.7220458984375E-05,0.00102996826171875,0.0140476226806641,0,
00:00:02.892,-6.29425048828125E-05,0.00101280212402344,0.0140361785888672,0,
00:00:02.896,-6.866455078125E-05,0.001007080078125,0.0140476226806641,0,
00:00:02.9,-6.866455078125E-05,0.00101852416992188,0.0140476226806641,0,
00:00:02.904,-6.29425048828125E-05,0.00103569030761719,0.0140419006347656,0,
00:00:02.908,-6.29425048828125E-05,0.00102996826171875,0.0140304565429688,0,
00:00:02.912,-6.29425048828125E-05,0.00102996826171875,0.0140190124511719,0,
00:00:02.916,-6.866455078125E-05,0.00102424621582031,0.0140247344970703,0,
00:00:02.92,-6.29425048828125E-05,0.00102424621582031,0.0140476226806641,0,
00:00:02.924,-5.7220458984375E-05,0.00102996826171875,0.0140247344970703,0,
00:00:02.928,-6.29425048828125E-05,0.00101852416992188,0.0140304565429688,0,
00:00:02.932,-6.866455078125E-05,0.00101280212402344,0.0140476226806641,0,
00:00:02.936,-6.866455078125E-05,0.00102424621582031,0.0140247344970703,0,
00:00:02.94,-6.29425048828125E-05,0.00103569030761719,0.0140361785888672,0,
00:00:02.944,-6.866455078125E-05,0.00102996826171875,0.0140361785888672,0,
00:00:02.948,-6.866455078125E-05,0.00101852416992188,0.0140247344970703,0,
00:00:02.952,-6.866455078125E-05,0.00101852416992188,0.0140132904052734,0,
00:00:02.956,-6.866455078125E-05,0.00102424621582031,0.0140361785888672,0,
00:00:02.96,-6.866455078125E-05,0.00102424621582031,0.0140361785888672,0,
00:00:02.964,-6.866455078125E-05,0.00102424621582031,0.0140304565429688,0,
00:00:02.968,-6.29425048828125E-05,0.00102996826171875,0.0140190124511719,0,
00:00:02.972,-6.866455078125E-05,0.00102424621582031,0.0140132904052734,0,
00:00:02.976,-6.29425048828125E-05,0.00102996826171875,0.0140361785888672,0,
00:00:02.98,-7.43865966796875E-05,0.00102424621582031,0.0140190124511719,0,
00:00:02.984,-6.866455078125E-05,0.00102996826171875,0.0140132904052734,0,
00:00:02.988,-6.29425048828125E-05,0.00102424621582031,0.0140132904052734,0,
00:00:02.992,-7.43865966796875E-05,0.00101852416992188,0.0140132904052734,0,
00:00:02.996,-7.43865966796875E-05,0.00101280212402344,0.0140190124511719,0,
00:00:03,-6.866455078125E-05,0.00101852416992188,0.0140304565429688,0,
00:00:03.004,-7.43865966796875E-05,0.00102424621582031,0.0140190124511719,0,
00:00:03.008,-7.43865966796875E-05,0.00102996826171875,0.014007568359375,0,
00:00:03.012,-6.29425048828125E-05,0.00102996826171875,0.0140419006347656,0,
00:00:03.016,-6.866455078125E-05,0.00102996826171875,0.0140361785888672,0,
00:00:03.02,-6.866455078125E-05,0.00101852416992188,0.0140132904052734,0,
00:00:03.024,-6.29425048828125E-05,0.00101852416992188,0.0140018463134766,0,
00:00:03.028,-7.43865966796875E-05,0.00101852416992188,0.0140476226806641,0,
00:00:03.032,-6.866455078125E-05,0.00102996826171875,0.0140190124511719,0,
00:00:03.036,-6.29425048828125E-05,0.00102424621582031,0.0140132904052734,0,
00:00:03.04,-6.29425048828125E-05,0.00104141235351563,0.0140361785888672,0,
00:00:03.044,-6.29425048828125E-05,0.00102996826171875,0.0140190124511719,0,
00:00:03.048,-6.29425048828125E-05,0.00104141235351563,0.0140018463134766,0,
00:00:03.052,-6.29425048828125E-05,0.00103569030761719,0.0139904022216797,0,
00:00:03.056,-6.29425048828125E-05,0.00102996826171875,0.0140304565429688,0,
00:00:03.06,-7.43865966796875E-05,0.00102424621582031,0.0140247344970703,0,
00:00:03.064,-7.43865966796875E-05,0.00101280212402344,0.0140132904052734,0,
00:00:03.068,-6.866455078125E-05,0.00101852416992188,0.0140132904052734,0,
00:00:03.072,-6.866455078125E-05,0.00104141235351563,0.0140190124511719,0,
00:00:03.076,-6.866455078125E-05,0.00104141235351563,0.0140190124511719,0,
00:00:03.08,-6.866455078125E-05,0.00103569030761719,0.0140190124511719,0,
00:00:03.084,-6.866455078125E-05,0.00102996826171875,0.0140132904052734,0,
00:00:03.088,-6.866455078125E-05,0.00102424621582031,0.014007568359375,0,
00:00:03.092,-6.29425048828125E-05,0.00102424621582031,0.014007568359375,0,
00:00:03.096,-6.866455078125E-05,0.00102996826171875,0.0140018463134766,0,
00:00:03.1,-9.1552734375E-05,0.000995635986328125,0.0140132904052734,0,
00:00:03.104,-8.58306884765625E-05,0.000989913940429688,0.0140190124511719,0,
00:00:03.108,-6.29425048828125E-05,0.00104713439941406,0.0139961242675781,0,
00:00:03.112,-5.7220458984375E-05,0.00105857849121094,0.0140132904052734,0,
00:00:03.116,-6.29425048828125E-05,0.00104141235351563,0.0139904022216797,0,
00:00:03.12,-7.43865966796875E-05,0.00103569030761719,0.0140132904052734,0,
00:00:03.124,-6.866455078125E-05,0.00103569030761719,0.0139961242675781,0,
00:00:03.128,-7.43865966796875E-05,0.00102996826171875,0.014007568359375,0,
00:00:03.132,-6.29425048828125E-05,0.00102424621582031,0.0139961242675781,0,
00:00:03.136,-6.866455078125E-05,0.00101852416992188,0.0140132904052734,0,
00:00:03.14,-6.866455078125E-05,0.00102424621582031,0.0140304565429688,0,
00:00:03.144,-6.866455078125E-05,0.00104141235351563,0.0140190124511719,0,
00:00:03.148,-6.866455078125E-05,0.00102996826171875,0.014007568359375,0,
00:00:03.152,-6.866455078125E-05,0.00102996826171875,0.0140018463134766,0,
00:00:03.156,-7.43865966796875E-05,0.00102424621582031,0.0139961242675781,0,
00:00:03.16,-7.43865966796875E-05,0.00102424621582031,0.0140132904052734,0,
00:00:03.164,-8.0108642578125E-05,0.00102424621582031,0.014007568359375,0,
00:00:03.168,-7.43865966796875E-05,0.00102996826171875,0.0139732360839844,0,
00:00:03.172,-6.29425048828125E-05,0.00103569030761719,0.0140190124511719,0,
00:00:03.176,-6.29425048828125E-05,0.00104141235351563,0.0140190124511719,0,
00:00:03.18,-6.29425048828125E-05,0.00103569030761719,0.014007568359375,0,
00:00:03.184,-7.43865966796875E-05,0.00102424621582031,0.014007568359375,0,
00:00:03.188,-7.43865966796875E-05,0.00102424621582031,0.014007568359375,0,
00:00:03.192,-7.43865966796875E-05,0.00102424621582031,0.0140018463134766,0,
00:00:03.196,-6.866455078125E-05,0.00102996826171875,0.0139961242675781,0,
00:00:03.2,-6.866455078125E-05,0.00102996826171875,0.0140018463134766,0,
00:00:03.204,-8.0108642578125E-05,0.00101852416992188,0.0139904022216797,0,
00:00:03.208,-7.43865966796875E-05,0.00103569030761719,0.0139904022216797,0,
00:00:03.212,-6.866455078125E-05,0.00104713439941406,0.014007568359375,0,
00:00:03.216,-6.866455078125E-05,0.00104141235351563,0.0139961242675781,0,
00:00:03.22,-7.43865966796875E-05,0.00101852416992188,0.0140018463134766,0,
00:00:03.224,-7.43865966796875E-05,0.00101280212402344,0.0139961242675781,0,
00:00:03.228,-6.866455078125E-05,0.00102424621582031,0.0139904022216797,0,
00:00:03.232,-7.43865966796875E-05,0.00102424621582031,0.0139846801757813,0,
00:00:03.236,-7.43865966796875E-05,0.00103569030761719,0.0139846801757813,0,
00:00:03.24,-6.866455078125E-05,0.00104141235351563,0.0139846801757813,0,
00:00:03.244,-6.866455078125E-05,0.00103569030761719,0.0140018463134766,0,
00:00:03.248,-7.43865966796875E-05,0.00102996826171875,0.0139846801757813,0,
00:00:03.252,-7.43865966796875E-05,0.00103569030761719,0.0140018463134766,0,
00:00:03.256,-7.43865966796875E-05,0.00104141235351563,0.0140132904052734,0,
00:00:03.26,-6.866455078125E-05,0.00103569030761719,0.014007568359375,0,
00:00:03.264,-7.43865966796875E-05,0.00102996826171875,0.0139961242675781,0,
00:00:03.268,-7.43865966796875E-05,0.00102996826171875,0.0139846801757813,0,
00:00:03.272,-7.43865966796875E-05,0.00102996826171875,0.0139846801757813,0,
00:00:03.276,-7.43865966796875E-05,0.00104141235351563,0.0139904022216797,0,
00:00:03.28,-7.43865966796875E-05,0.0010528564453125,0.0139961242675781,0,
00:00:03.284,-6.866455078125E-05,0.00104141235351563,0.0139732360839844,0,
00:00:03.288,-6.866455078125E-05,0.00103569030761719,0.0139789581298828,0,
00:00:03.292,-8.0108642578125E-05,0.00102996826171875,0.0140018463134766,0,
00:00:03.296,-7.43865966796875E-05,0.00102996826171875,0.0139732360839844,0,
00:00:03.3,-7.43865966796875E-05,0.00102996826171875,0.0139675140380859,0,
00:00:03.304,-6.866455078125E-05,0.00104141235351563,0.0140018463134766,0,
00:00:03.308,-7.43865966796875E-05,0.00103569030761719,0.0139846801757813,0,
00:00:03.312,-6.866455078125E-05,0.00104141235351563,0.0139846801757813,0,
00:00:03.316,-6.866455078125E-05,0.00103569030761719,0.0139617919921875,0,
00:00:03.32,-8.0108642578125E-05,0.00102996826171875,0.0140018463134766,0,
00:00:03.324,-8.0108642578125E-05,0.00103569030761719,0.0139904022216797,0,
00:00:03.328,-6.866455078125E-05,0.00102996826171875,0.0139675140380859,0,
00:00:03.332,-6.866455078125E-05,0.00102424621582031,0.0139732360839844,0,
00:00:03.336,-8.0108642578125E-05,0.00103569030761719,0.0139846801757813,0,
00:00:03.34,-7.43865966796875E-05,0.00104141235351563,0.0139789581298828,0,
00:00:03.344,-6.866455078125E-05,0.00104141235351563,0.0139732360839844,0,
00:00:03.348,-7.43865966796875E-05,0.00103569030761719,0.0139846801757813,0,
00:00:03.352,-6.866455078125E-05,0.00103569030761719,0.0139732360839844,0,
00:00:03.356,-5.7220458984375E-05,0.00104713439941406,0.0139675140380859,0,
00:00:03.36,-7.43865966796875E-05,0.00103569030761719,0.0139617919921875,0,
00:00:03.364,-8.0108642578125E-05,0.00103569030761719,0.0140190124511719,0,
00:00:03.368,-7.43865966796875E-05,0.00103569030761719,0.0139846801757813,0,
00:00:03.372,-7.43865966796875E-05,0.00103569030761719,0.0139789581298828,0,
00:00:03.376,-7.43865966796875E-05,0.00102996826171875,0.0139732360839844,0,
00:00:03.38,-7.43865966796875E-05,0.00102996826171875,0.0139732360839844,0,
00:00:03.384,-6.866455078125E-05,0.00104141235351563,0.0139789581298828,0,
00:00:03.388,-7.43865966796875E-05,0.00103569030761719,0.0139617919921875,0,
00:00:03.392,-7.43865966796875E-05,0.00102996826171875,0.0139617919921875,0,
00:00:03.396,-6.866455078125E-05,0.0010528564453125,0.0139503479003906,0,
00:00:03.4,-6.866455078125E-05,0.00103569030761719,0.0139560699462891,0,
00:00:03.404,-7.43865966796875E-05,0.00102424621582031,0.0139732360839844,0,
00:00:03.408,-8.0108642578125E-05,0.00103569030761719,0.0139675140380859,0,
00:00:03.412,-6.866455078125E-05,0.00105857849121094,0.0139560699462891,0,
00:00:03.416,-6.866455078125E-05,0.00103569030761719,0.0139732360839844,0,
00:00:03.42,-8.58306884765625E-05,0.00101852416992188,0.0139789581298828,0,
00:00:03.424,-7.43865966796875E-05,0.00104141235351563,0.0139675140380859,0,
00:00:03.428,-6.866455078125E-05,0.00105857849121094,0.0139675140380859,0,
00:00:03.432,-6.866455078125E-05,0.0010528564453125,0.0139617919921875,0,
00:00:03.436,-6.866455078125E-05,0.00104713439941406,0.0139675140380859,0,
00:00:03.44,-7.43865966796875E-05,0.00102996826171875,0.0139617919921875,0,
00:00:03.444,-6.866455078125E-05,0.00101852416992188,0.0139617919921875,0,
00:00:03.448,-8.0108642578125E-05,0.00101280212402344,0.0139617919921875,0,
00:00:03.452,-8.0108642578125E-05,0.00104141235351563,0.0139617919921875,0,
00:00:03.456,-7.43865966796875E-05,0.00105857849121094,0.0139617919921875,0,
00:00:03.46,-6.866455078125E-05,0.00104713439941406,0.0139560699462891,0,
00:00:03.464,-6.866455078125E-05,0.00104141235351563,0.0139560699462891,0,
00:00:03.468,-6.866455078125E-05,0.00103569030761719,0.0139503479003906,0,
00:00:03.472,-6.866455078125E-05,0.0010528564453125,0.0139732360839844,0,
00:00:03.476,-6.866455078125E-05,0.0010528564453125,0.0139560699462891,0,
00:00:03.48,-7.43865966796875E-05,0.00102996826171875,0.0139446258544922,0,
00:00:03.484,-7.43865966796875E-05,0.00102996826171875,0.0139675140380859,0,
00:00:03.488,-8.58306884765625E-05,0.00104713439941406,0.0139675140380859,0,
00:00:03.492,-7.43865966796875E-05,0.00104141235351563,0.0139389038085938,0,
00:00:03.496,-6.866455078125E-05,0.00103569030761719,0.0139617919921875,0,
00:00:03.5,-7.43865966796875E-05,0.00104713439941406,0.0139560699462891,0,
00:00:03.504,-8.0108642578125E-05,0.00104141235351563,0.0139560699462891,0,
00:00:03.508,-7.43865966796875E-05,0.00102996826171875,0.0139732360839844,0,
00:00:03.512,-6.866455078125E-05,0.00103569030761719,0.0139560699462891,0,
00:00:03.516,-7.43865966796875E-05,0.00104141235351563,0.0139446258544922,0,
00:00:03.52,-7.43865966796875E-05,0.00105857849121094,0.0139560699462891,0,
00:00:03.524,-6.866455078125E-05,0.0010528564453125,0.0139560699462891,0,
00:00:03.528,-7.43865966796875E-05,0.00104141235351563,0.0139389038085938,0,
00:00:03.532,-8.0108642578125E-05,0.00103569030761719,0.0139446258544922,0,
00:00:03.536,-6.866455078125E-05,0.00103569030761719,0.0139503479003906,0,
00:00:03.54,-7.43865966796875E-05,0.0010528564453125,0.0139732360839844,0,
00:00:03.544,-7.43865966796875E-05,0.00104713439941406,0.0139503479003906,0,
00:00:03.548,-7.43865966796875E-05,0.00103569030761719,0.0139503479003906,0,
00:00:03.552,-8.0108642578125E-05,0.00102424621582031,0.0139331817626953,0,
00:00:03.556,-8.0108642578125E-05,0.00102996826171875,0.0139274597167969,0,
00:00:03.56,-7.43865966796875E-05,0.00104141235351563,0.0139732360839844,0,
00:00:03.564,-7.43865966796875E-05,0.00104713439941406,0.0139446258544922,0,
00:00:03.568,-8.0108642578125E-05,0.00103569030761719,0.0139274597167969,0,
00:00:03.572,-7.43865966796875E-05,0.00104141235351563,0.0139503479003906,0,
00:00:03.576,-7.43865966796875E-05,0.00104713439941406,0.0139560699462891,0,
00:00:03.58,-7.43865966796875E-05,0.00104713439941406,0.0139503479003906,0,
00:00:03.584,-7.43865966796875E-05,0.00103569030761719,0.0139503479003906,0,
00:00:03.588,-7.43865966796875E-05,0.00102996826171875,0.0139560699462891,0,
00:00:03.592,-6.866455078125E-05,0.00103569030761719,0.0139274597167969,0,
00:00:03.596,-7.43865966796875E-05,0.00103569030761719,0.0139102935791016,0,
00:00:03.6,-8.0108642578125E-05,0.00103569030761719,0.0139560699462891,0,
00:00:03.604,-6.866455078125E-05,0.00105857849121094,0.0139617919921875,0,
00:00:03.608,-7.43865966796875E-05,0.0010528564453125,0.0139503479003906,0,
00:00:03.612,-8.58306884765625E-05,0.00103569030761719,0.0139560699462891,0,
00:00:03.616,-8.0108642578125E-05,0.00102996826171875,0.0139503479003906,0,
00:00:03.62,-7.43865966796875E-05,0.00104141235351563,0.0139331817626953,0,
00:00:03.624,-8.0108642578125E-05,0.0010528564453125,0.0139446258544922,0,
00:00:03.628,-8.0108642578125E-05,0.00104713439941406,0.0139446258544922,0,
00:00:03.632,-8.0108642578125E-05,0.00103569030761719,0.0139503479003906,0,
00:00:03.636,-8.58306884765625E-05,0.00104141235351563,0.0139560699462891,0,
00:00:03.64,-8.0108642578125E-05,0.00104141235351563,0.0139389038085938,0,
00:00:03.644,-7.43865966796875E-05,0.0010528564453125,0.0139389038085938,0,
00:00:03.648,-6.866455078125E-05,0.0010528564453125,0.0139446258544922,0,
00:00:03.652,-7.43865966796875E-05,0.00104141235351563,0.0139389038085938,0,
00:00:03.656,-8.0108642578125E-05,0.00102996826171875,0.0139389038085938,0,
00:00:03.66,-8.58306884765625E-05,0.00102996826171875,0.0139389038085938,0,
00:00:03.664,-8.58306884765625E-05,0.00103569030761719,0.0139560699462891,0,
00:00:03.668,-8.58306884765625E-05,0.00104141235351563,0.0139331817626953,0,
00:00:03.672,-7.43865966796875E-05,0.00105857849121094,0.0139331817626953,0,
00:00:03.676,-8.0108642578125E-05,0.00104713439941406,0.0139331817626953,0,
00:00:03.68,-8.0108642578125E-05,0.0010528564453125,0.0139560699462891,0,
00:00:03.684,-8.0108642578125E-05,0.00104713439941406,0.0139446258544922,0,
00:00:03.688,-8.0108642578125E-05,0.00103569030761719,0.0139389038085938,0,
00:00:03.692,-8.58306884765625E-05,0.00104141235351563,0.013916015625,0,
00:00:03.696,-6.866455078125E-05,0.00107002258300781,0.013916015625,0,
00:00:03.7,-7.43865966796875E-05,0.00105857849121094,0.0139331817626953,0,
00:00:03.704,-8.0108642578125E-05,0.0010528564453125,0.0139503479003906,0,
00:00:03.708,-8.0108642578125E-05,0.00104713439941406,0.0139503479003906,0,
00:00:03.712,-8.0108642578125E-05,0.00103569030761719,0.0139331817626953,0,
00:00:03.716,-8.0108642578125E-05,0.00102996826171875,0.0139389038085938,0,
00:00:03.72,-7.43865966796875E-05,0.00102996826171875,0.0139274597167969,0,
00:00:03.724,-8.58306884765625E-05,0.0010528564453125,0.0139389038085938,0,
00:00:03.728,-8.58306884765625E-05,0.00106430053710938,0.0139389038085938,0,
00:00:03.732,-7.43865966796875E-05,0.0010528564453125,0.0139389038085938,0,
00:00:03.736,-7.43865966796875E-05,0.0010528564453125,0.0139274597167969,0,
00:00:03.74,-8.0108642578125E-05,0.00104141235351563,0.0139331817626953,0,
00:00:03.744,-7.43865966796875E-05,0.0010528564453125,0.0139274597167969,0,
00:00:03.748,-8.0108642578125E-05,0.0010528564453125,0.0139102935791016,0,
00:00:03.752,-9.1552734375E-05,0.00102996826171875,0.0139446258544922,0,
00:00:03.756,-8.58306884765625E-05,0.00104141235351563,0.0139389038085938,0,
00:00:03.76,-8.58306884765625E-05,0.00106430053710938,0.0139217376708984,0,
00:00:03.764,-7.43865966796875E-05,0.0010528564453125,0.0139045715332031,0,
00:00:03.768,-7.43865966796875E-05,0.0010528564453125,0.0139217376708984,0,
00:00:03.772,-8.58306884765625E-05,0.00104713439941406,0.0139503479003906,0,
00:00:03.776,-8.58306884765625E-05,0.00104713439941406,0.0139389038085938,0,
00:00:03.78,-8.0108642578125E-05,0.0010528564453125,0.0139217376708984,0,
00:00:03.784,-7.43865966796875E-05,0.00103569030761719,0.0139217376708984,0,
00:00:03.788,-8.0108642578125E-05,0.00102996826171875,0.013916015625,0,
00:00:03.792,-8.0108642578125E-05,0.00105857849121094,0.0139217376708984,0,
00:00:03.796,-8.0108642578125E-05,0.00104141235351563,0.0139331817626953,0,
00:00:03.8,-8.58306884765625E-05,0.00102996826171875,0.0139331817626953,0,
00:00:03.804,-8.58306884765625E-05,0.00103569030761719,0.013916015625,0,
00:00:03.808,-8.58306884765625E-05,0.0010528564453125,0.0139217376708984,0,
00:00:03.812,-8.0108642578125E-05,0.00106430053710938,0.0139045715332031,0,
00:00:03.816,-8.0108642578125E-05,0.00106430053710938,0.0139274597167969,0,
00:00:03.82,-8.58306884765625E-05,0.00105857849121094,0.0139274597167969,0,
00:00:03.824,-7.43865966796875E-05,0.0010528564453125,0.0139274597167969,0,
00:00:03.828,-8.58306884765625E-05,0.0010528564453125,0.013916015625,0,
00:00:03.832,-8.58306884765625E-05,0.00104713439941406,0.0139217376708984,0,
00:00:03.836,-9.1552734375E-05,0.00103569030761719,0.0139274597167969,0,
00:00:03.84,-8.58306884765625E-05,0.0010528564453125,0.0139274597167969,0,
00:00:03.844,-8.0108642578125E-05,0.0010528564453125,0.013916015625,0,
00:00:03.848,-8.0108642578125E-05,0.0010528564453125,0.013916015625,0,
00:00:03.852,-8.58306884765625E-05,0.00104713439941406,0.0139217376708984,0,
00:00:03.856,-9.1552734375E-05,0.00103569030761719,0.0139045715332031,0,
00:00:03.86,-8.0108642578125E-05,0.00104141235351563,0.0139045715332031,0,
00:00:03.864,-8.0108642578125E-05,0.00104713439941406,0.0139045715332031,0,
00:00:03.868,-8.58306884765625E-05,0.00102996826171875,0.0139102935791016,0,
00:00:03.872,-9.1552734375E-05,0.00103569030761719,0.0139102935791016,0,
00:00:03.876,-8.0108642578125E-05,0.00107002258300781,0.0138988494873047,0,
00:00:03.88,-7.43865966796875E-05,0.00107002258300781,0.0139217376708984,0,
00:00:03.884,-8.0108642578125E-05,0.00106430053710938,0.0139274597167969,0,
00:00:03.888,-8.0108642578125E-05,0.0010528564453125,0.013916015625,0,
00:00:03.892,-8.0108642578125E-05,0.00103569030761719,0.0138931274414063,0,
00:00:03.896,-8.58306884765625E-05,0.00102996826171875,0.0139217376708984,0,
00:00:03.9,-8.0108642578125E-05,0.00104141235351563,0.0139331817626953,0,
00:00:03.904,-8.58306884765625E-05,0.00104713439941406,0.0139217376708984,0,
00:00:03.908,-8.58306884765625E-05,0.0010528564453125,0.0139102935791016,0,
00:00:03.912,-8.0108642578125E-05,0.00104713439941406,0.0138988494873047,0,
00:00:03.916,-8.0108642578125E-05,0.00104713439941406,0.0138874053955078,0,
00:00:03.92,-8.58306884765625E-05,0.0010528564453125,0.0138931274414063,0,
00:00:03.924,-8.0108642578125E-05,0.00105857849121094,0.0139446258544922,0,
00:00:03.928,-8.0108642578125E-05,0.0010528564453125,0.013916015625,0,
00:00:03.932,-8.58306884765625E-05,0.00105857849121094,0.013916015625,0,
00:00:03.936,-8.58306884765625E-05,0.00104713439941406,0.0139102935791016,0,
00:00:03.94,-9.1552734375E-05,0.00102996826171875,0.0139045715332031,0,
00:00:03.944,-8.58306884765625E-05,0.00104141235351563,0.0138988494873047,0,
00:00:03.948,-6.866455078125E-05,0.00106430053710938,0.0138759613037109,0,
00:00:03.952,-8.0108642578125E-05,0.00105857849121094,0.0139102935791016,0,
00:00:03.956,-9.1552734375E-05,0.0010528564453125,0.013916015625,0,
00:00:03.96,-8.58306884765625E-05,0.00104141235351563,0.0139045715332031,0,
00:00:03.964,-8.58306884765625E-05,0.00103569030761719,0.0138816833496094,0,
00:00:03.968,-8.0108642578125E-05,0.0010528564453125,0.0138988494873047,0,
00:00:03.972,-7.43865966796875E-05,0.00107002258300781,0.0139102935791016,0,
00:00:03.976,-8.58306884765625E-05,0.00105857849121094,0.0139045715332031,0,
00:00:03.98,-9.1552734375E-05,0.00104713439941406,0.0139274597167969,0,
00:00:03.984,-9.1552734375E-05,0.00104713439941406,0.0139102935791016,0,
00:00:03.988,-8.58306884765625E-05,0.00104141235351563,0.0139102935791016,0,
00:00:03.992,-8.58306884765625E-05,0.00104141235351563,0.0139045715332031,0,
00:00:03.996,-8.0108642578125E-05,0.00104141235351563,0.0138988494873047,0,
00:00:04,-8.0108642578125E-05,0.00105857849121094,0.0139045715332031,0,
00:00:04.004,-8.0108642578125E-05,0.0010528564453125,0.0138816833496094,0,
00:00:04.008,-8.58306884765625E-05,0.00105857849121094,0.0138988494873047,0,
00:00:04.012,-8.0108642578125E-05,0.00106430053710938,0.0138874053955078,0,
00:00:04.016,-8.0108642578125E-05,0.00104713439941406,0.0139102935791016,0,
00:00:04.02,-8.58306884765625E-05,0.00103569030761719,0.013916015625,0,
00:00:04.024,-8.0108642578125E-05,0.00105857849121094,0.0138816833496094,0,
00:00:04.028,-8.0108642578125E-05,0.00105857849121094,0.0139045715332031,0,
00:00:04.032,-9.1552734375E-05,0.0010528564453125,0.0139217376708984,0,
00:00:04.036,-9.1552734375E-05,0.00104141235351563,0.0138988494873047,0,
00:00:04.04,-8.58306884765625E-05,0.00104141235351563,0.0138702392578125,0,
00:00:04.044,-8.0108642578125E-05,0.00105857849121094,0.0138874053955078,0,
00:00:04.048,-8.58306884765625E-05,0.00106430053710938,0.0138931274414063,0,
00:00:04.052,-8.58306884765625E-05,0.00105857849121094,0.0139102935791016,0,
00:00:04.056,-8.58306884765625E-05,0.0010528564453125,0.0139217376708984,0,
00:00:04.06,-9.1552734375E-05,0.00104713439941406,0.0139274597167969,0,
00:00:04.064,-9.1552734375E-05,0.00104141235351563,0.0139102935791016,0,
00:00:04.068,-9.1552734375E-05,0.00104713439941406,0.0139045715332031,0,
00:00:04.072,-9.1552734375E-05,0.00104141235351563,0.0139045715332031,0,
00:00:04.076,-8.58306884765625E-05,0.00104713439941406,0.0138988494873047,0,
00:00:04.08,-8.0108642578125E-05,0.0010528564453125,0.0139045715332031,0,
00:00:04.084,-8.58306884765625E-05,0.00104141235351563,0.0139045715332031,0,
00:00:04.088,-8.58306884765625E-05,0.00104141235351563,0.0138587951660156,0,
00:00:04.092,-8.0108642578125E-05,0.0010528564453125,0.0138645172119141,0,
00:00:04.096,-8.0108642578125E-05,0.00104713439941406,0.0139102935791016,0,
00:00:04.1,-9.1552734375E-05,0.00104713439941406,0.0139274597167969,0,
00:00:04.104,-8.58306884765625E-05,0.00105857849121094,0.013916015625,0,
00:00:04.108,-8.0108642578125E-05,0.00105857849121094,0.013916015625,0,
00:00:04.112,-8.58306884765625E-05,0.00104713439941406,0.0138988494873047,0,
00:00:04.116,-9.1552734375E-05,0.00104141235351563,0.013916015625,0,
00:00:04.12,-9.1552734375E-05,0.00104141235351563,0.013916015625,0,
00:00:04.124,-8.58306884765625E-05,0.0010528564453125,0.0139102935791016,0,
00:00:04.128,-8.58306884765625E-05,0.00105857849121094,0.013916015625,0,
00:00:04.132,-9.1552734375E-05,0.00104713439941406,0.0139045715332031,0,
00:00:04.136,-9.1552734375E-05,0.00104141235351563,0.0138645172119141,0,
00:00:04.14,-8.0108642578125E-05,0.00104141235351563,0.0138874053955078,0,
00:00:04.144,-8.58306884765625E-05,0.00103569030761719,0.0139102935791016,0,
00:00:04.148,-9.1552734375E-05,0.00104141235351563,0.0139389038085938,0,
00:00:04.152,-8.58306884765625E-05,0.00104713439941406,0.0139274597167969,0,
00:00:04.156,-9.1552734375E-05,0.00104713439941406,0.0139274597167969,0,
00:00:04.16,-9.1552734375E-05,0.00104141235351563,0.0139331817626953,0,
00:00:04.164,-9.72747802734375E-05,0.00104141235351563,0.0139274597167969,0,
00:00:04.168,-9.1552734375E-05,0.00104713439941406,0.0139217376708984,0,
00:00:04.172,-9.1552734375E-05,0.00103569030761719,0.0139217376708984,0,
00:00:04.176,-8.58306884765625E-05,0.00104141235351563,0.0139217376708984,0,
00:00:04.18,-8.58306884765625E-05,0.00104713439941406,0.0139274597167969,0,
00:00:04.184,-9.1552734375E-05,0.00104141235351563,0.013916015625,0,
00:00:04.188,-8.58306884765625E-05,0.00102996826171875,0.0138874053955078,0,
00:00:04.192,-8.0108642578125E-05,0.00102424621582031,0.0138874053955078,0,
00:00:04.196,-8.58306884765625E-05,0.00103569030761719,0.0139045715332031,0,
00:00:04.2,-8.58306884765625E-05,0.00103569030761719,0.0139560699462891,0,
00:00:04.204,-9.1552734375E-05,0.00104713439941406,0.0139675140380859,0,
00:00:04.208,-9.72747802734375E-05,0.00103569030761719,0.0139617919921875,0,
00:00:04.212,-8.58306884765625E-05,0.00104713439941406,0.0139446258544922,0,
00:00:04.216,-9.1552734375E-05,0.00104713439941406,0.0139560699462891,0,
00:00:04.22,-9.72747802734375E-05,0.00102424621582031,0.0139560699462891,0,
00:00:04.224,-9.1552734375E-05,0.00102424621582031,0.0139446258544922,0,
00:00:04.228,-9.1552734375E-05,0.00103569030761719,0.0139503479003906,0,
00:00:04.232,-8.58306884765625E-05,0.00102424621582031,0.0139446258544922,0,
00:00:04.236,-8.58306884765625E-05,0.00103569030761719,0.0139274597167969,0,
00:00:04.24,-9.1552734375E-05,0.00104141235351563,0.0139675140380859,0,
00:00:04.244,-8.58306884765625E-05,0.00104141235351563,0.0139789581298828,0,
00:00:04.248,-9.1552734375E-05,0.00102424621582031,0.0139675140380859,0,
00:00:04.252,-9.1552734375E-05,0.001007080078125,0.0139732360839844,0,
00:00:04.256,-8.0108642578125E-05,0.00103569030761719,0.0139789581298828,0,
00:00:04.26,-8.0108642578125E-05,0.00103569030761719,0.0139675140380859,0,
00:00:04.264,-8.58306884765625E-05,0.00102424621582031,0.0139732360839844,0,
00:00:04.268,-8.58306884765625E-05,0.00102996826171875,0.0139789581298828,0,
00:00:04.272,-8.58306884765625E-05,0.00102424621582031,0.0139789581298828,0,
00:00:04.276,-8.58306884765625E-05,0.00102424621582031,0.0139789581298828,0,
00:00:04.28,-8.58306884765625E-05,0.00101280212402344,0.0139846801757813,0,
00:00:04.284,-8.58306884765625E-05,0.00101280212402344,0.014007568359375,0,
00:00:04.288,-8.58306884765625E-05,0.001007080078125,0.014007568359375,0,
00:00:04.292,-8.58306884765625E-05,0.00101280212402344,0.0140018463134766,0,
00:00:04.296,-8.0108642578125E-05,0.00103569030761719,0.0139732360839844,0,
00:00:04.3,-8.58306884765625E-05,0.00102424621582031,0.0140132904052734,0,
00:00:04.304,-8.0108642578125E-05,0.00101280212402344,0.0140018463134766,0,
00:00:04.308,-8.58306884765625E-05,0.00100135803222656,0.0140190124511719,0,
00:00:04.312,-8.58306884765625E-05,0.00100135803222656,0.0140247344970703,0,
00:00:04.316,-8.0108642578125E-05,0.00100135803222656,0.0140304565429688,0,
00:00:04.32,-8.58306884765625E-05,0.00101280212402344,0.0140247344970703,0,
00:00:04.324,-8.0108642578125E-05,0.00100135803222656,0.0140304565429688,0,
00:00:04.328,-8.0108642578125E-05,0.00100135803222656,0.0140190124511719,0,
00:00:04.332,-7.43865966796875E-05,0.00102424621582031,0.0140476226806641,0,
00:00:04.336,-7.43865966796875E-05,0.00102996826171875,0.0140419006347656,0,
00:00:04.34,-8.0108642578125E-05,0.00101852416992188,0.0140361785888672,0,
00:00:04.344,-8.0108642578125E-05,0.001007080078125,0.0140705108642578,0,
00:00:04.348,-8.0108642578125E-05,0.000995635986328125,0.0140705108642578,0,
00:00:04.352,-8.0108642578125E-05,0.001007080078125,0.0140533447265625,0,
00:00:04.356,-8.0108642578125E-05,0.00100135803222656,0.0140647888183594,0,
00:00:04.36,-7.43865966796875E-05,0.00098419189453125,0.0140819549560547,0,
00:00:04.364,-6.866455078125E-05,0.000989913940429688,0.0140819549560547,0,
00:00:04.368,-7.43865966796875E-05,0.00100135803222656,0.0140705108642578,0,
00:00:04.372,-8.0108642578125E-05,0.000989913940429688,0.0140876770019531,0,
00:00:04.376,-8.58306884765625E-05,0.000967025756835938,0.01409912109375,0,
00:00:04.38,-8.0108642578125E-05,0.00098419189453125,0.01409912109375,0,
00:00:04.384,-6.866455078125E-05,0.001007080078125,0.0140933990478516,0,
00:00:04.388,-6.866455078125E-05,0.001007080078125,0.0140933990478516,0,
00:00:04.392,-6.29425048828125E-05,0.001007080078125,0.0140819549560547,0,
00:00:04.396,-7.43865966796875E-05,0.00098419189453125,0.0141048431396484,0,
00:00:04.4,-8.0108642578125E-05,0.000967025756835938,0.0141391754150391,0,
00:00:04.404,-8.0108642578125E-05,0.000949859619140625,0.0141391754150391,0,
00:00:04.408,-8.0108642578125E-05,0.000949859619140625,0.0141162872314453,0,
00:00:04.412,-7.43865966796875E-05,0.000978469848632813,0.0141391754150391,0,
00:00:04.416,-6.866455078125E-05,0.000989913940429688,0.0141506195068359,0,
00:00:04.42,-6.866455078125E-05,0.000989913940429688,0.0141563415527344,0,
00:00:04.424,-6.866455078125E-05,0.000978469848632813,0.0141620635986328,0,
00:00:04.428,-6.866455078125E-05,0.0009613037109375,0.0141506195068359,0,
00:00:04.432,-6.29425048828125E-05,0.0009613037109375,0.0141506195068359,0,
00:00:04.436,-6.866455078125E-05,0.000967025756835938,0.0141448974609375,0,
00:00:04.44,-5.7220458984375E-05,0.00098419189453125,0.0141735076904297,0,
00:00:04.444,-6.29425048828125E-05,0.000978469848632813,0.0141963958740234,0,
00:00:04.448,-6.29425048828125E-05,0.000972747802734375,0.0141735076904297,0,
00:00:04.452,-6.866455078125E-05,0.000967025756835938,0.0141849517822266,0,
00:00:04.456,-6.29425048828125E-05,0.0009613037109375,0.0141849517822266,0,
00:00:04.46,-6.29425048828125E-05,0.000955581665039063,0.0142078399658203,0,
00:00:04.464,-6.29425048828125E-05,0.000949859619140625,0.0142021179199219,0,
00:00:04.468,-6.866455078125E-05,0.000944137573242188,0.0142192840576172,0,
00:00:04.472,-6.29425048828125E-05,0.000944137573242188,0.0142250061035156,0,
00:00:04.476,-5.14984130859375E-05,0.000978469848632813,0.0142078399658203,0,
00:00:04.48,-5.7220458984375E-05,0.0009613037109375,0.0142192840576172,0,
00:00:04.484,-5.7220458984375E-05,0.000949859619140625,0.0142250061035156,0,
00:00:04.488,-6.29425048828125E-05,0.000932693481445313,0.0142536163330078,0,
00:00:04.492,-6.29425048828125E-05,0.000926971435546875,0.0142421722412109,0,
00:00:04.496,-5.14984130859375E-05,0.000955581665039063,0.0142650604248047,0,
00:00:04.5,-5.14984130859375E-05,0.000955581665039063,0.0142593383789063,0,
00:00:04.504,-5.14984130859375E-05,0.000944137573242188,0.0142593383789063,0,
00:00:04.508,-4.57763671875E-05,0.000955581665039063,0.0142765045166016,0,
00:00:04.512,-4.57763671875E-05,0.000932693481445313,0.0142765045166016,0,
00:00:04.516,-5.7220458984375E-05,0.000921249389648438,0.0142822265625,0,
00:00:04.52,-4.57763671875E-05,0.000932693481445313,0.0142879486083984,0,
00:00:04.524,-4.00543212890625E-05,0.000949859619140625,0.0142936706542969,0,
00:00:04.528,-4.00543212890625E-05,0.000944137573242188,0.0142879486083984,0,
00:00:04.532,-4.57763671875E-05,0.000926971435546875,0.0143051147460938,0,
00:00:04.536,-4.57763671875E-05,0.000921249389648438,0.0143051147460938,0,
00:00:04.54,-4.57763671875E-05,0.000921249389648438,0.0143222808837891,0,
00:00:04.544,-4.00543212890625E-05,0.000932693481445313,0.0142993927001953,0,
00:00:04.548,-4.57763671875E-05,0.00091552734375,0.0143337249755859,0,
00:00:04.552,-4.57763671875E-05,0.00089263916015625,0.0143451690673828,0,
00:00:04.556,-4.00543212890625E-05,0.000921249389648438,0.0143280029296875,0,
00:00:04.56,-3.4332275390625E-05,0.000926971435546875,0.0143280029296875,0,
00:00:04.564,-3.4332275390625E-05,0.000926971435546875,0.0143680572509766,0,
00:00:04.568,-3.4332275390625E-05,0.000909805297851563,0.0143508911132813,0,
00:00:04.572,-2.86102294921875E-05,0.000909805297851563,0.0143680572509766,0,
00:00:04.576,-3.4332275390625E-05,0.00091552734375,0.0143966674804688,0,
00:00:04.58,-3.4332275390625E-05,0.000904083251953125,0.0143852233886719,0,
00:00:04.584,-2.86102294921875E-05,0.000886917114257813,0.0143909454345703,0,
00:00:04.588,-2.86102294921875E-05,0.00089263916015625,0.0144023895263672,0,
00:00:04.592,-2.86102294921875E-05,0.000909805297851563,0.0144081115722656,0,
00:00:04.596,-2.288818359375E-05,0.00091552734375,0.0143966674804688,0,
00:00:04.6,-2.288818359375E-05,0.000909805297851563,0.0144081115722656,0,
00:00:04.604,-2.288818359375E-05,0.000898361206054688,0.0144252777099609,0,
00:00:04.608,-1.71661376953125E-05,0.000898361206054688,0.0144367218017578,0,
00:00:04.612,-2.288818359375E-05,0.000875473022460938,0.0144367218017578,0,
00:00:04.616,-2.288818359375E-05,0.000886917114257813,0.0144481658935547,0,
00:00:04.62,-2.288818359375E-05,0.00089263916015625,0.0144538879394531,0,
00:00:04.624,-1.71661376953125E-05,0.000886917114257813,0.0144481658935547,0,
00:00:04.628,-1.71661376953125E-05,0.000886917114257813,0.0144309997558594,0,
00:00:04.632,-1.71661376953125E-05,0.000886917114257813,0.01446533203125,0,
00:00:04.636,-1.1444091796875E-05,0.000886917114257813,0.0144538879394531,0,
00:00:04.64,-5.7220458984375E-06,0.000875473022460938,0.0144824981689453,0,
00:00:04.644,-1.71661376953125E-05,0.000886917114257813,0.0145111083984375,0,
00:00:04.648,-5.7220458984375E-06,0.000881195068359375,0.0144996643066406,0,
00:00:04.652,-5.7220458984375E-06,0.000875473022460938,0.0144939422607422,0,
00:00:04.656,-1.1444091796875E-05,0.0008697509765625,0.0145053863525391,0,
00:00:04.66,-1.71661376953125E-05,0.000875473022460938,0.0145168304443359,0,
00:00:04.664,-5.7220458984375E-06,0.000875473022460938,0.0145168304443359,0,
00:00:04.668,0,0.000875473022460938,0.0145282745361328,0,
00:00:04.672,-5.7220458984375E-06,0.000864028930664063,0.0145397186279297,0,
00:00:04.676,0,0.000858306884765625,0.0145339965820313,0,
00:00:04.68,0,0.00084686279296875,0.0145454406738281,0,
00:00:04.684,0,0.0008697509765625,0.0145626068115234,0,
00:00:04.688,5.7220458984375E-06,0.000858306884765625,0.0145626068115234,0,
00:00:04.692,0,0.000835418701171875,0.0145626068115234,0,
00:00:04.696,5.7220458984375E-06,0.00084686279296875,0.0145511627197266,0,
00:00:04.7,5.7220458984375E-06,0.000864028930664063,0.0145683288574219,0,
00:00:04.704,1.1444091796875E-05,0.000864028930664063,0.0145854949951172,0,
00:00:04.708,1.71661376953125E-05,0.000852584838867188,0.0145854949951172,0,
00:00:04.712,1.1444091796875E-05,0.00084686279296875,0.0145969390869141,0,
00:00:04.716,5.7220458984375E-06,0.000841140747070313,0.0145797729492188,0,
00:00:04.72,5.7220458984375E-06,0.000829696655273438,0.0145969390869141,0,
00:00:04.724,1.1444091796875E-05,0.000818252563476563,0.0146255493164063,0,
00:00:04.728,1.1444091796875E-05,0.000829696655273438,0.0146083831787109,0,
00:00:04.732,2.86102294921875E-05,0.00084686279296875,0.0146255493164063,0,
00:00:04.736,2.86102294921875E-05,0.000841140747070313,0.0146312713623047,0,
00:00:04.74,2.86102294921875E-05,0.00084686279296875,0.0146312713623047,0,
00:00:04.744,2.86102294921875E-05,0.000829696655273438,0.0146427154541016,0,
00:00:04.748,2.86102294921875E-05,0.000823974609375,0.0146312713623047,0,
00:00:04.752,1.71661376953125E-05,0.000812530517578125,0.0146369934082031,0,
00:00:04.756,2.86102294921875E-05,0.000829696655273438,0.0146427154541016,0,
00:00:04.76,3.4332275390625E-05,0.000829696655273438,0.0146598815917969,0,
00:00:04.764,3.4332275390625E-05,0.000818252563476563,0.0146713256835938,0,
00:00:04.768,2.86102294921875E-05,0.000818252563476563,0.0146827697753906,0,
00:00:04.772,3.4332275390625E-05,0.00080108642578125,0.0146999359130859,0,
00:00:04.776,2.86102294921875E-05,0.000789642333984375,0.0146942138671875,0,
00:00:04.78,4.00543212890625E-05,0.000806808471679688,0.0146770477294922,0,
00:00:04.784,4.57763671875E-05,0.000829696655273438,0.0147113800048828,0,
00:00:04.788,4.57763671875E-05,0.000818252563476563,0.0146999359130859,0,
00:00:04.792,4.00543212890625E-05,0.000818252563476563,0.0147171020507813,0,
00:00:04.796,4.00543212890625E-05,0.000812530517578125,0.0147228240966797,0,
00:00:04.8,4.57763671875E-05,0.000812530517578125,0.0147228240966797,0,
00:00:04.804,4.00543212890625E-05,0.00080108642578125,0.0147285461425781,0,
00:00:04.808,5.14984130859375E-05,0.000795364379882813,0.0147285461425781,0,
00:00:04.812,4.57763671875E-05,0.000789642333984375,0.0147342681884766,0,
00:00:04.816,4.57763671875E-05,0.000795364379882813,0.0147285461425781,0,
00:00:04.82,5.7220458984375E-05,0.000806808471679688,0.0147571563720703,0,
00:00:04.824,5.7220458984375E-05,0.00080108642578125,0.0147686004638672,0,
00:00:04.828,5.14984130859375E-05,0.000795364379882813,0.0147628784179688,0,
00:00:04.832,5.7220458984375E-05,0.000795364379882813,0.0147514343261719,0,
00:00:04.836,5.7220458984375E-05,0.000806808471679688,0.0147457122802734,0,
00:00:04.84,5.7220458984375E-05,0.000789642333984375,0.0147743225097656,0,
00:00:04.844,5.7220458984375E-05,0.000772476196289063,0.0147743225097656,0,
00:00:04.848,5.7220458984375E-05,0.000789642333984375,0.0148143768310547,0,
00:00:04.852,5.7220458984375E-05,0.000772476196289063,0.0147972106933594,0,
00:00:04.856,5.7220458984375E-05,0.0007781982421875,0.0147914886474609,0,
00:00:04.86,6.29425048828125E-05,0.000783920288085938,0.0148086547851563,0,
00:00:04.864,6.29425048828125E-05,0.000766754150390625,0.0148143768310547,0,
00:00:04.868,6.866455078125E-05,0.000772476196289063,0.0148258209228516,0,
00:00:04.872,7.43865966796875E-05,0.000789642333984375,0.0148086547851563,0,
00:00:04.876,6.29425048828125E-05,0.000766754150390625,0.0148258209228516,0,
00:00:04.88,6.29425048828125E-05,0.000766754150390625,0.0148429870605469,0,
00:00:04.884,7.43865966796875E-05,0.000783920288085938,0.01483154296875,0,
00:00:04.888,6.866455078125E-05,0.000772476196289063,0.0148429870605469,0,
00:00:04.892,7.43865966796875E-05,0.000766754150390625,0.0148372650146484,0,
00:00:04.896,8.0108642578125E-05,0.000766754150390625,0.0148487091064453,0,
00:00:04.9,7.43865966796875E-05,0.000766754150390625,0.0148658752441406,0,
00:00:04.904,7.43865966796875E-05,0.000761032104492188,0.0148601531982422,0,
00:00:04.908,8.0108642578125E-05,0.00075531005859375,0.0148487091064453,0,
00:00:04.912,8.0108642578125E-05,0.000749588012695313,0.0148773193359375,0,
00:00:04.916,8.58306884765625E-05,0.00075531005859375,0.0148715972900391,0,
00:00:04.92,8.58306884765625E-05,0.000761032104492188,0.0148830413818359,0,
00:00:04.924,8.0108642578125E-05,0.00075531005859375,0.0148773193359375,0,
00:00:04.928,9.1552734375E-05,0.000738143920898438,0.0148830413818359,0,
00:00:04.932,9.72747802734375E-05,0.000749588012695313,0.0148830413818359,0,
00:00:04.936,9.1552734375E-05,0.000749588012695313,0.0149116516113281,0,
00:00:04.94,9.72747802734375E-05,0.00075531005859375,0.0148944854736328,0,
00:00:04.944,9.1552734375E-05,0.000738143920898438,0.0149116516113281,0,
00:00:04.948,9.1552734375E-05,0.000732421875,0.014923095703125,0,
00:00:04.952,9.72747802734375E-05,0.000732421875,0.0149059295654297,0,
00:00:04.956,9.72747802734375E-05,0.000738143920898438,0.014923095703125,0,
00:00:04.96,9.72747802734375E-05,0.000738143920898438,0.0149173736572266,0,
00:00:04.964,9.1552734375E-05,0.000732421875,0.0149059295654297,0,
00:00:04.968,9.72747802734375E-05,0.000715255737304688,0.0149402618408203,0,
00:00:04.972,0.000102996826171875,0.000738143920898438,0.0149402618408203,0,
00:00:04.976,0.000102996826171875,0.000738143920898438,0.0149459838867188,0,
00:00:04.98,0.000102996826171875,0.000732421875,0.0149517059326172,0,
00:00:04.984,0.000108718872070313,0.000726699829101563,0.0149459838867188,0,
00:00:04.988,0.000102996826171875,0.000720977783203125,0.0149402618408203,0,
00:00:04.992,0.00011444091796875,0.000720977783203125,0.0149345397949219,0,
00:00:04.996,0.000120162963867188,0.000732421875,0.0149517059326172,0,
00:00:05,0.00011444091796875,0.000726699829101563,0.0149803161621094,0,
00:00:05.004,0.000108718872070313,0.000720977783203125,0.0149974822998047,0,
00:00:05.008,0.000108718872070313,0.00070953369140625,0.0149803161621094,0,
00:00:05.012,0.000102996826171875,0.000698089599609375,0.0149745941162109,0,
00:00:05.016,0.000120162963867188,0.000698089599609375,0.0149688720703125,0,
00:00:05.02,0.000120162963867188,0.000732421875,0.0149745941162109,0,
00:00:05.024,0.000120162963867188,0.000743865966796875,0.0149803161621094,0,
00:00:05.028,0.000120162963867188,0.00070953369140625,0.0150146484375,0,
00:00:05.032,0.000120162963867188,0.000715255737304688,0.0150032043457031,0,
00:00:05.036,0.000125885009765625,0.000720977783203125,0.0150032043457031,0,
00:00:05.04,0.000125885009765625,0.000715255737304688,0.0150146484375,0,
00:00:05.044,0.000125885009765625,0.000703811645507813,0.0150032043457031,0,
00:00:05.048,0.000125885009765625,0.000692367553710938,0.0150203704833984,0,
00:00:05.052,0.000125885009765625,0.000692367553710938,0.0149974822998047,0,
00:00:05.056,0.000131607055664063,0.00070953369140625,0.0149917602539063,0,
00:00:05.06,0.000143051147460938,0.000715255737304688,0.0150432586669922,0,
00:00:05.064,0.000143051147460938,0.000703811645507813,0.0150489807128906,0,
00:00:05.068,0.0001373291015625,0.000692367553710938,0.0150375366210938,0,
00:00:05.072,0.000131607055664063,0.0006866455078125,0.0150375366210938,0,
00:00:05.076,0.000143051147460938,0.000698089599609375,0.0150203704833984,0,
00:00:05.08,0.000143051147460938,0.00070953369140625,0.0150489807128906,0,
00:00:05.084,0.0001373291015625,0.000698089599609375,0.0150318145751953,0,
00:00:05.088,0.0001373291015625,0.000698089599609375,0.0150489807128906,0,
00:00:05.092,0.000143051147460938,0.000703811645507813,0.0150547027587891,0,
00:00:05.096,0.0001373291015625,0.000692367553710938,0.0150604248046875,0,
00:00:05.1,0.000143051147460938,0.000680923461914063,0.0150775909423828,0,
00:00:05.104,0.0001373291015625,0.00066375732421875,0.0150604248046875,0,
00:00:05.108,0.000148773193359375,0.000675201416015625,0.0150547027587891,0,
00:00:05.112,0.000148773193359375,0.000680923461914063,0.0150775909423828,0,
00:00:05.116,0.000148773193359375,0.0006866455078125,0.0150775909423828,0,
00:00:05.12,0.00016021728515625,0.00070953369140625,0.0150604248046875,0,
00:00:05.124,0.000165939331054688,0.000703811645507813,0.0150775909423828,0,
00:00:05.128,0.00016021728515625,0.000692367553710938,0.0150661468505859,0,
00:00:05.132,0.000148773193359375,0.000675201416015625,0.0151004791259766,0,
00:00:05.136,0.000148773193359375,0.000669479370117188,0.0151004791259766,0,
00:00:05.14,0.000154495239257813,0.000669479370117188,0.015106201171875,0,
00:00:05.144,0.000154495239257813,0.00066375732421875,0.0151004791259766,0,
00:00:05.148,0.000154495239257813,0.000675201416015625,0.0150947570800781,0,
00:00:05.152,0.000165939331054688,0.000680923461914063,0.0150890350341797,0,
00:00:05.156,0.000165939331054688,0.000675201416015625,0.0150833129882813,0,
00:00:05.16,0.00016021728515625,0.000680923461914063,0.0151290893554688,0,
00:00:05.164,0.000171661376953125,0.000669479370117188,0.0151119232177734,0,
00:00:05.168,0.000165939331054688,0.000692367553710938,0.0151176452636719,0,
00:00:05.172,0.000165939331054688,0.000680923461914063,0.0151176452636719,0,
00:00:05.176,0.000165939331054688,0.00066375732421875,0.015106201171875,0,
00:00:05.18,0.00016021728515625,0.000669479370117188,0.015106201171875,0,
00:00:05.184,0.000165939331054688,0.00066375732421875,0.015106201171875,0,
00:00:05.188,0.000165939331054688,0.000652313232421875,0.0151290893554688,0,
00:00:05.192,0.000177383422851563,0.000675201416015625,0.0151233673095703,0,
00:00:05.196,0.00018310546875,0.000692367553710938,0.0151405334472656,0,
00:00:05.2,0.000177383422851563,0.000680923461914063,0.0151405334472656,0,
00:00:05.204,0.000177383422851563,0.000675201416015625,0.0151290893554688,0,
00:00:05.208,0.000177383422851563,0.000658035278320313,0.0151348114013672,0,
00:00:05.212,0.000177383422851563,0.000646591186523438,0.0151290893554688,0,
00:00:05.216,0.00018310546875,0.000652313232421875,0.0151462554931641,0,
00:00:05.22,0.000177383422851563,0.000658035278320313,0.0151576995849609,0,
00:00:05.224,0.000188827514648438,0.000658035278320313,0.0151519775390625,0,
00:00:05.228,0.00018310546875,0.000658035278320313,0.0151462554931641,0,
00:00:05.232,0.00018310546875,0.00066375732421875,0.0151462554931641,0,
00:00:05.236,0.000188827514648438,0.000658035278320313,0.0151405334472656,0,
00:00:05.24,0.000188827514648438,0.000646591186523438,0.0151519775390625,0,
00:00:05.244,0.00018310546875,0.000635147094726563,0.0151348114013672,0,
00:00:05.248,0.000188827514648438,0.000658035278320313,0.0151405334472656,0,
00:00:05.252,0.000194549560546875,0.00066375732421875,0.0151634216308594,0,
00:00:05.256,0.000194549560546875,0.000658035278320313,0.0151805877685547,0,
00:00:05.26,0.000200271606445313,0.00066375732421875,0.0151634216308594,0,
00:00:05.264,0.000194549560546875,0.000640869140625,0.0151462554931641,0,
00:00:05.268,0.000194549560546875,0.000629425048828125,0.0151519775390625,0,
00:00:05.272,0.000200271606445313,0.000640869140625,0.0151863098144531,0,
00:00:05.276,0.000200271606445313,0.00066375732421875,0.0151863098144531,0,
00:00:05.28,0.00020599365234375,0.000669479370117188,0.0151691436767578,0,
00:00:05.284,0.00020599365234375,0.000652313232421875,0.0151576995849609,0,
00:00:05.288,0.000200271606445313,0.000640869140625,0.0151691436767578,0,
00:00:05.292,0.00020599365234375,0.000652313232421875,0.0151748657226563,0,
00:00:05.296,0.00020599365234375,0.000646591186523438,0.0151748657226563,0,
00:00:05.3,0.00020599365234375,0.000640869140625,0.0151863098144531,0,
00:00:05.304,0.000211715698242188,0.000652313232421875,0.0151748657226563,0,
00:00:05.308,0.000223159790039063,0.000658035278320313,0.0151748657226563,0,
00:00:05.312,0.000211715698242188,0.000640869140625,0.0151805877685547,0,
00:00:05.316,0.000211715698242188,0.000640869140625,0.0151748657226563,0,
00:00:05.32,0.00020599365234375,0.000629425048828125,0.01519775390625,0,
00:00:05.324,0.000217437744140625,0.000629425048828125,0.0151920318603516,0,
00:00:05.328,0.000211715698242188,0.000635147094726563,0.0151691436767578,0,
00:00:05.332,0.000223159790039063,0.000640869140625,0.0151691436767578,0,
00:00:05.336,0.0002288818359375,0.000652313232421875,0.0152091979980469,0,
00:00:05.34,0.000217437744140625,0.000652313232421875,0.0152034759521484,0,
00:00:05.344,0.000223159790039063,0.000646591186523438,0.0151863098144531,0,
00:00:05.348,0.000223159790039063,0.000640869140625,0.0151748657226563,0,
00:00:05.352,0.000223159790039063,0.000635147094726563,0.01519775390625,0,
00:00:05.356,0.0002288818359375,0.000635147094726563,0.0151805877685547,0,
00:00:05.36,0.000223159790039063,0.000635147094726563,0.0152206420898438,0,
00:00:05.364,0.000223159790039063,0.000640869140625,0.0152149200439453,0,
00:00:05.368,0.0002288818359375,0.000640869140625,0.01519775390625,0,
00:00:05.372,0.000223159790039063,0.000635147094726563,0.01519775390625,0,
00:00:05.376,0.000234603881835938,0.000640869140625,0.0152034759521484,0,
00:00:05.38,0.0002288818359375,0.000629425048828125,0.01519775390625,0,
00:00:05.384,0.000223159790039063,0.00061798095703125,0.0151805877685547,0,
00:00:05.388,0.000234603881835938,0.000640869140625,0.0152263641357422,0,
00:00:05.392,0.000240325927734375,0.000652313232421875,0.0152034759521484,0,
00:00:05.396,0.000240325927734375,0.000646591186523438,0.0152034759521484,0,
00:00:05.4,0.000246047973632813,0.000635147094726563,0.0152034759521484,0,
00:00:05.404,0.000234603881835938,0.000635147094726563,0.0152149200439453,0,
00:00:05.408,0.0002288818359375,0.000623703002929688,0.0152149200439453,0,
00:00:05.412,0.000223159790039063,0.000612258911132813,0.01519775390625,0,
00:00:05.416,0.000234603881835938,0.000623703002929688,0.0152206420898438,0,
00:00:05.42,0.000240325927734375,0.000635147094726563,0.0152149200439453,0,
00:00:05.424,0.000246047973632813,0.000623703002929688,0.0151920318603516,0,
00:00:05.428,0.000240325927734375,0.000629425048828125,0.0152263641357422,0,
00:00:05.432,0.000246047973632813,0.000635147094726563,0.01519775390625,0,
00:00:05.436,0.000240325927734375,0.000629425048828125,0.0152320861816406,0,
00:00:05.44,0.0002288818359375,0.000612258911132813,0.0152263641357422,0,
00:00:05.444,0.000234603881835938,0.000612258911132813,0.0152263641357422,0,
00:00:05.448,0.000246047973632813,0.000629425048828125,0.0152378082275391,0,
00:00:05.452,0.00025177001953125,0.000640869140625,0.0152206420898438,0,
00:00:05.456,0.000246047973632813,0.000635147094726563,0.0152263641357422,0,
00:00:05.46,0.000246047973632813,0.000635147094726563,0.0152091979980469,0,
00:00:05.464,0.00025177001953125,0.000635147094726563,0.0151805877685547,0,
00:00:05.468,0.000240325927734375,0.00061798095703125,0.0152320861816406,0,
00:00:05.472,0.000240325927734375,0.000623703002929688,0.0152435302734375,0,
00:00:05.476,0.00025177001953125,0.000635147094726563,0.0152320861816406,0,
00:00:05.48,0.000257492065429688,0.000612258911132813,0.0152149200439453,0,
00:00:05.484,0.000257492065429688,0.000623703002929688,0.0152149200439453,0,
00:00:05.488,0.000246047973632813,0.000623703002929688,0.0152320861816406,0,
00:00:05.492,0.00025177001953125,0.000612258911132813,0.0152206420898438,0,
00:00:05.496,0.00025177001953125,0.00061798095703125,0.0152034759521484,0,
00:00:05.5,0.00025177001953125,0.000623703002929688,0.0152263641357422,0,
00:00:05.504,0.000257492065429688,0.00061798095703125,0.0152320861816406,0,
00:00:05.508,0.00025177001953125,0.00061798095703125,0.0152149200439453,0,
00:00:05.512,0.00025177001953125,0.00061798095703125,0.0152206420898438,0,
00:00:05.516,0.00025177001953125,0.000612258911132813,0.0152263641357422,0,
00:00:05.52,0.000257492065429688,0.000623703002929688,0.0152435302734375,0,
00:00:05.524,0.000268936157226563,0.000623703002929688,0.0152263641357422,0,
00:00:05.528,0.000263214111328125,0.000612258911132813,0.0152206420898438,0,
00:00:05.532,0.000257492065429688,0.0005950927734375,0.0152320861816406,0,
00:00:05.536,0.000263214111328125,0.000623703002929688,0.0152320861816406,0,
00:00:05.54,0.000263214111328125,0.000629425048828125,0.0152263641357422,0,
00:00:05.544,0.00025177001953125,0.00061798095703125,0.0152378082275391,0,
00:00:05.548,0.000274658203125,0.000623703002929688,0.0152263641357422,0,
00:00:05.552,0.000268936157226563,0.000623703002929688,0.0152378082275391,0,
00:00:05.556,0.000263214111328125,0.000612258911132813,0.0152206420898438,0,
00:00:05.56,0.000263214111328125,0.000612258911132813,0.0152320861816406,0,
00:00:05.564,0.000257492065429688,0.000623703002929688,0.0152263641357422,0,
00:00:05.568,0.000268936157226563,0.000612258911132813,0.0152206420898438,0,
00:00:05.572,0.000274658203125,0.000612258911132813,0.0152263641357422,0,
00:00:05.576,0.000268936157226563,0.00061798095703125,0.0152378082275391,0,
00:00:05.58,0.000274658203125,0.000629425048828125,0.0152435302734375,0,
00:00:05.584,0.000274658203125,0.00061798095703125,0.0152263641357422,0,
00:00:05.588,0.000268936157226563,0.000606536865234375,0.0152091979980469,0,
00:00:05.592,0.000274658203125,0.000606536865234375,0.0152263641357422,0,
00:00:05.596,0.000274658203125,0.00061798095703125,0.0152263641357422,0,
00:00:05.6,0.000268936157226563,0.000600814819335938,0.0152320861816406,0,
00:00:05.604,0.000274658203125,0.0005950927734375,0.0152320861816406,0,
00:00:05.608,0.000268936157226563,0.000600814819335938,0.0152320861816406,0,
00:00:05.612,0.000268936157226563,0.000612258911132813,0.0152320861816406,0,
00:00:05.616,0.000268936157226563,0.000606536865234375,0.0152492523193359,0,
00:00:05.62,0.000274658203125,0.000612258911132813,0.0152378082275391,0,
00:00:05.624,0.000286102294921875,0.00061798095703125,0.0152378082275391,0,
00:00:05.628,0.000291824340820313,0.00061798095703125,0.0152206420898438,0,
00:00:05.632,0.000286102294921875,0.000612258911132813,0.0152320861816406,0,
00:00:05.636,0.000274658203125,0.000606536865234375,0.0152435302734375,0,
00:00:05.64,0.000274658203125,0.000606536865234375,0.0152263641357422,0,
00:00:05.644,0.000280380249023438,0.000612258911132813,0.0152549743652344,0,
00:00:05.648,0.000286102294921875,0.000623703002929688,0.0152435302734375,0,
00:00:05.652,0.000286102294921875,0.000612258911132813,0.0152378082275391,0,
00:00:05.656,0.000286102294921875,0.000600814819335938,0.0152320861816406,0,
00:00:05.66,0.000286102294921875,0.00061798095703125,0.0152263641357422,0,
00:00:05.664,0.000286102294921875,0.000612258911132813,0.0152263641357422,0,
00:00:05.668,0.000280380249023438,0.0005950927734375,0.0152378082275391,0,
00:00:05.672,0.000280380249023438,0.000600814819335938,0.0152378082275391,0,
00:00:05.676,0.000280380249023438,0.000606536865234375,0.0152320861816406,0,
00:00:05.68,0.000291824340820313,0.00061798095703125,0.0152378082275391,0,
00:00:05.684,0.000286102294921875,0.000612258911132813,0.0152320861816406,0,
00:00:05.688,0.000286102294921875,0.000600814819335938,0.0152320861816406,0,
00:00:05.692,0.000291824340820313,0.000600814819335938,0.0152034759521484,0,
00:00:05.696,0.00029754638671875,0.00061798095703125,0.0152549743652344,0,
00:00:05.7,0.00029754638671875,0.000623703002929688,0.0152606964111328,0,
00:00:05.704,0.000280380249023438,0.000589370727539063,0.0152320861816406,0,
00:00:05.708,0.000280380249023438,0.000589370727539063,0.0152378082275391,0,
00:00:05.712,0.000291824340820313,0.000606536865234375,0.0152378082275391,0,
00:00:05.716,0.000286102294921875,0.000600814819335938,0.0152435302734375,0,
00:00:05.72,0.000286102294921875,0.000600814819335938,0.0152263641357422,0,
00:00:05.724,0.00029754638671875,0.00061798095703125,0.0152091979980469,0,
00:00:05.728,0.00029754638671875,0.00061798095703125,0.0152549743652344,0,
00:00:05.732,0.00029754638671875,0.000623703002929688,0.0152492523193359,0,
00:00:05.736,0.00029754638671875,0.000623703002929688,0.0152435302734375,0,
00:00:05.74,0.000286102294921875,0.000606536865234375,0.0152549743652344,0,
00:00:05.744,0.000291824340820313,0.0005950927734375,0.0152492523193359,0,
00:00:05.748,0.000291824340820313,0.000612258911132813,0.0152378082275391,0,
00:00:05.752,0.000291824340820313,0.000612258911132813,0.0152435302734375,0,
00:00:05.756,0.000291824340820313,0.000612258911132813,0.0152435302734375,0,
00:00:05.76,0.000291824340820313,0.000606536865234375,0.0152149200439453,0,
00:00:05.764,0.000291824340820313,0.000600814819335938,0.0152492523193359,0,
00:00:05.768,0.00029754638671875,0.000606536865234375,0.0152435302734375,0,
00:00:05.772,0.00029754638671875,0.000606536865234375,0.0152206420898438,0,
00:00:05.776,0.000291824340820313,0.000606536865234375,0.0152091979980469,0,
00:00:05.78,0.00029754638671875,0.000606536865234375,0.0152206420898438,0,
00:00:05.784,0.000308990478515625,0.000606536865234375,0.0152034759521484,0,
00:00:05.788,0.000303268432617188,0.000606536865234375,0.0152549743652344,0,
00:00:05.792,0.00029754638671875,0.000623703002929688,0.0152378082275391,0,
00:00:05.796,0.00029754638671875,0.000606536865234375,0.0152206420898438,0,
00:00:05.8,0.00029754638671875,0.000600814819335938,0.0152320861816406,0,
00:00:05.804,0.000291824340820313,0.000600814819335938,0.0152378082275391,0,
00:00:05.808,0.00029754638671875,0.0005950927734375,0.0152149200439453,0,
00:00:05.812,0.000291824340820313,0.000606536865234375,0.0152263641357422,0,
00:00:05.816,0.000291824340820313,0.000623703002929688,0.0152149200439453,0,
00:00:05.82,0.000303268432617188,0.00061798095703125,0.0152149200439453,0,
00:00:05.824,0.000303268432617188,0.000600814819335938,0.0152378082275391,0,
00:00:05.828,0.00029754638671875,0.000606536865234375,0.0152320861816406,0,
00:00:05.832,0.00029754638671875,0.00061798095703125,0.0152091979980469,0,
00:00:05.836,0.000303268432617188,0.000606536865234375,0.0152034759521484,0,
00:00:05.84,0.00029754638671875,0.000612258911132813,0.0152263641357422,0,
00:00:05.844,0.000308990478515625,0.00061798095703125,0.0152149200439453,0,
00:00:05.848,0.000303268432617188,0.000612258911132813,0.0152149200439453,0,
00:00:05.852,0.000308990478515625,0.000606536865234375,0.0152149200439453,0,
00:00:05.856,0.00029754638671875,0.000612258911132813,0.0152206420898438,0,
00:00:05.86,0.000303268432617188,0.00061798095703125,0.0152263641357422,0,
00:00:05.864,0.000303268432617188,0.000600814819335938,0.0152034759521484,0,
00:00:05.868,0.000291824340820313,0.000589370727539063,0.0152091979980469,0,
00:00:05.872,0.000291824340820313,0.000606536865234375,0.0152091979980469,0,
00:00:05.876,0.000303268432617188,0.000623703002929688,0.0152263641357422,0,
00:00:05.88,0.000308990478515625,0.00061798095703125,0.0152149200439453,0,
00:00:05.884,0.000308990478515625,0.00061798095703125,0.0152091979980469,0,
00:00:05.888,0.000303268432617188,0.000600814819335938,0.0152149200439453,0,
00:00:05.892,0.000303268432617188,0.000600814819335938,0.0152149200439453,0,
00:00:05.896,0.000303268432617188,0.000612258911132813,0.0152034759521484,0,
00:00:05.9,0.00029754638671875,0.000612258911132813,0.0152091979980469,0,
00:00:05.904,0.000303268432617188,0.00061798095703125,0.0152206420898438,0,
00:00:05.908,0.000308990478515625,0.000612258911132813,0.0152091979980469,0,
00:00:05.912,0.000303268432617188,0.000600814819335938,0.0152034759521484,0,
00:00:05.916,0.00029754638671875,0.0005950927734375,0.0152034759521484,0,
00:00:05.92,0.000303268432617188,0.000600814819335938,0.0152149200439453,0,
00:00:05.924,0.000308990478515625,0.000612258911132813,0.0151863098144531,0,
00:00:05.928,0.000308990478515625,0.00061798095703125,0.01519775390625,0,
00:00:05.932,0.0003204345703125,0.00061798095703125,0.0151920318603516,0,
00:00:05.936,0.000314712524414063,0.00061798095703125,0.0152091979980469,0,
00:00:05.94,0.00029754638671875,0.000606536865234375,0.0151920318603516,0,
00:00:05.944,0.00029754638671875,0.000606536865234375,0.0152091979980469,0,
00:00:05.948,0.00029754638671875,0.00061798095703125,0.0151863098144531,0,
00:00:05.952,0.000314712524414063,0.000629425048828125,0.0151805877685547,0,
00:00:05.956,0.000314712524414063,0.00061798095703125,0.0152091979980469,0,
00:00:05.96,0.000308990478515625,0.000612258911132813,0.01519775390625,0,
00:00:05.964,0.000308990478515625,0.000612258911132813,0.0151920318603516,0,
00:00:05.968,0.000308990478515625,0.000612258911132813,0.0151863098144531,0,
00:00:05.972,0.000308990478515625,0.000600814819335938,0.0151805877685547,0,
00:00:05.976,0.000308990478515625,0.000600814819335938,0.0151863098144531,0,
00:00:05.98,0.000308990478515625,0.000606536865234375,0.0151863098144531,0,
00:00:05.984,0.000308990478515625,0.000623703002929688,0.0152034759521484,0,
00:00:05.988,0.0003204345703125,0.00061798095703125,0.0151748657226563,0,
00:00:05.992,0.000314712524414063,0.000612258911132813,0.0151691436767578,0,
00:00:05.996,0.000308990478515625,0.000635147094726563,0.0151805877685547,0,
00:00:06,0.000326156616210938,0.000640869140625,0.0151920318603516,0,
00:00:06.004,0.0003204345703125,0.000623703002929688,0.0151920318603516,0,
00:00:06.008,0.000314712524414063,0.00061798095703125,0.0151691436767578,0,
00:00:06.012,0.000314712524414063,0.00061798095703125,0.0151519775390625,0,
00:00:06.016,0.000314712524414063,0.000612258911132813,0.0151748657226563,0,
00:00:06.02,0.000314712524414063,0.000606536865234375,0.0151920318603516,0,
00:00:06.024,0.000308990478515625,0.000612258911132813,0.0151863098144531,0,
00:00:06.028,0.000314712524414063,0.000612258911132813,0.0151748657226563,0,
00:00:06.032,0.0003204345703125,0.000623703002929688,0.0151634216308594,0,
00:00:06.036,0.000314712524414063,0.000623703002929688,0.0151748657226563,0,
00:00:06.04,0.000314712524414063,0.00061798095703125,0.0151691436767578,0,
00:00:06.044,0.0003204345703125,0.000623703002929688,0.0151634216308594,0,
00:00:06.048,0.0003204345703125,0.000612258911132813,0.0151348114013672,0,
00:00:06.052,0.000314712524414063,0.000612258911132813,0.0151348114013672,0,
00:00:06.056,0.000314712524414063,0.000606536865234375,0.0151805877685547,0,
00:00:06.06,0.0003204345703125,0.000612258911132813,0.0151748657226563,0,
00:00:06.064,0.0003204345703125,0.000612258911132813,0.0151634216308594,0,
00:00:06.068,0.0003204345703125,0.000623703002929688,0.0151691436767578,0,
00:00:06.072,0.000326156616210938,0.000635147094726563,0.0151748657226563,0,
00:00:06.076,0.000326156616210938,0.000623703002929688,0.0151691436767578,0,
00:00:06.08,0.0003204345703125,0.00061798095703125,0.0151462554931641,0,
00:00:06.084,0.0003204345703125,0.000623703002929688,0.0151576995849609,0,
00:00:06.088,0.0003204345703125,0.00061798095703125,0.0151519775390625,0,
00:00:06.092,0.0003204345703125,0.00061798095703125,0.0151576995849609,0,
00:00:06.096,0.000314712524414063,0.000612258911132813,0.0151576995849609,0,
00:00:06.1,0.000326156616210938,0.000623703002929688,0.0151348114013672,0,
00:00:06.104,0.000326156616210938,0.000635147094726563,0.0151519775390625,0,
00:00:06.108,0.000326156616210938,0.000623703002929688,0.0151405334472656,0,
00:00:06.112,0.000314712524414063,0.000606536865234375,0.0151519775390625,0,
00:00:06.116,0.000314712524414063,0.000606536865234375,0.0151233673095703,0,
00:00:06.12,0.0003204345703125,0.000629425048828125,0.0151805877685547,0,
00:00:06.124,0.000326156616210938,0.000629425048828125,0.0151576995849609,0,
00:00:06.128,0.0003204345703125,0.000629425048828125,0.0151290893554688,0,
00:00:06.132,0.000326156616210938,0.000635147094726563,0.0151519775390625,0,
00:00:06.136,0.000314712524414063,0.000629425048828125,0.0151576995849609,0,
00:00:06.14,0.0003204345703125,0.00061798095703125,0.0151405334472656,0,
00:00:06.144,0.000326156616210938,0.000623703002929688,0.0151462554931641,0,
00:00:06.148,0.000326156616210938,0.000623703002929688,0.0151290893554688,0,
00:00:06.152,0.000314712524414063,0.000629425048828125,0.0151290893554688,0,
00:00:06.156,0.0003204345703125,0.000629425048828125,0.0151405334472656,0,
00:00:06.16,0.0003204345703125,0.000612258911132813,0.0151233673095703,0,
00:00:06.164,0.0003204345703125,0.000629425048828125,0.0151405334472656,0,
00:00:06.168,0.000314712524414063,0.000635147094726563,0.0151405334472656,0,
00:00:06.172,0.0003204345703125,0.000635147094726563,0.0151233673095703,0,
00:00:06.176,0.0003204345703125,0.000635147094726563,0.0151405334472656,0,
00:00:06.18,0.0003204345703125,0.000629425048828125,0.0151348114013672,0,
00:00:06.184,0.0003204345703125,0.000629425048828125,0.0151290893554688,0,
00:00:06.188,0.000331878662109375,0.000623703002929688,0.0151119232177734,0,
00:00:06.192,0.000326156616210938,0.000629425048828125,0.0150890350341797,0,
00:00:06.196,0.0003204345703125,0.000629425048828125,0.0151462554931641,0,
00:00:06.2,0.000326156616210938,0.000629425048828125,0.0151290893554688,0,
00:00:06.204,0.000314712524414063,0.000623703002929688,0.0151176452636719,0,
00:00:06.208,0.0003204345703125,0.000612258911132813,0.0150947570800781,0,
00:00:06.212,0.000326156616210938,0.00061798095703125,0.0151176452636719,0,
00:00:06.216,0.0003204345703125,0.000623703002929688,0.015106201171875,0,
00:00:06.22,0.0003204345703125,0.000640869140625,0.0151233673095703,0,
00:00:06.224,0.000314712524414063,0.000635147094726563,0.0151233673095703,0,
00:00:06.228,0.0003204345703125,0.000629425048828125,0.015106201171875,0,
00:00:06.232,0.000314712524414063,0.000623703002929688,0.015106201171875,0,
00:00:06.236,0.000331878662109375,0.000623703002929688,0.0150947570800781,0,
00:00:06.24,0.0003204345703125,0.000635147094726563,0.0151119232177734,0,
00:00:06.244,0.0003204345703125,0.000646591186523438,0.0151119232177734,0,
00:00:06.248,0.000326156616210938,0.000640869140625,0.0151004791259766,0,
00:00:06.252,0.0003204345703125,0.000629425048828125,0.0150890350341797,0,
00:00:06.256,0.000314712524414063,0.000635147094726563,0.015106201171875,0,
00:00:06.26,0.000326156616210938,0.00061798095703125,0.0150890350341797,0,
00:00:06.264,0.0003204345703125,0.000635147094726563,0.0150890350341797,0,
00:00:06.268,0.0003204345703125,0.000640869140625,0.0150833129882813,0,
00:00:06.272,0.000326156616210938,0.000635147094726563,0.0150718688964844,0,
00:00:06.276,0.0003204345703125,0.000640869140625,0.0150604248046875,0,
00:00:06.28,0.000326156616210938,0.000640869140625,0.0151119232177734,0,
00:00:06.284,0.000326156616210938,0.000640869140625,0.0150890350341797,0,
00:00:06.288,0.000314712524414063,0.000646591186523438,0.0151004791259766,0,
00:00:06.292,0.0003204345703125,0.000635147094726563,0.0150833129882813,0,
00:00:06.296,0.0003204345703125,0.000635147094726563,0.0150833129882813,0,
00:00:06.3,0.0003204345703125,0.000652313232421875,0.0150775909423828,0,
00:00:06.304,0.0003204345703125,0.000640869140625,0.0150547027587891,0,
00:00:06.308,0.0003204345703125,0.000629425048828125,0.0150661468505859,0,
00:00:06.312,0.000314712524414063,0.000629425048828125,0.0150890350341797,0,
00:00:06.316,0.000314712524414063,0.000635147094726563,0.0150661468505859,0,
00:00:06.32,0.0003204345703125,0.000646591186523438,0.0150661468505859,0,
00:00:06.324,0.0003204345703125,0.000640869140625,0.0150661468505859,0,
00:00:06.328,0.0003204345703125,0.000635147094726563,0.0150604248046875,0,
