Elapsed Time,EMG1,EMG2,EMG3,BioRadio Event,
00:00:00,-0.00018310546875,-0.00029754638671875,0.0128917694091797,0,
00:00:00.004,-0.000194549560546875,-0.000291824340820313,0.0128974914550781,0,
00:00:00.008,-0.000165939331054688,-0.000274658203125,0.0129032135009766,0,
00:00:00.012,-0.000177383422851563,-0.000263214111328125,0.012908935546875,0,
00:00:00.016,-0.000177383422851563,-0.000257492065429688,0.0129032135009766,0,
00:00:00.02,-0.000165939331054688,-0.000263214111328125,0.0129032135009766,0,
00:00:00.024,-0.000165939331054688,-0.000274658203125,0.012908935546875,0,
00:00:00.028,-0.000171661376953125,-0.000286102294921875,0.0129146575927734,0,
00:00:00.032,-0.000165939331054688,-0.000263214111328125,0.0129203796386719,0,
00:00:00.036,-0.000177383422851563,-0.000268936157226563,0.0129203796386719,0,
00:00:00.04,-0.00018310546875,-0.000286102294921875,0.0129261016845703,0,
00:00:00.044,-0.000194549560546875,-0.000291824340820313,0.0129318237304688,0,
00:00:00.048,-0.000177383422851563,-0.000286102294921875,0.0129375457763672,0,
00:00:00.052,-0.000177383422851563,-0.000274658203125,0.0129432678222656,0,
00:00:00.056,-0.000165939331054688,-0.000274658203125,0.0129375457763672,0,
00:00:00.06,-0.000171661376953125,-0.000286102294921875,0.0129375457763672,0,
00:00:00.064,-0.000177383422851563,-0.000280380249023438,0.0129432678222656,0,
00:00:00.068,-0.00018310546875,-0.000286102294921875,0.0129432678222656,0,
00:00:00.072,-0.000194549560546875,-0.000314712524414063,0.0129547119140625,0,
00:00:00.076,-0.000188827514648438,-0.000308990478515625,0.0129547119140625,0,
00:00:00.08,-0.000171661376953125,-0.000268936157226563,0.0129604339599609,0,
00:00:00.084,-0.000165939331054688,-0.000257492065429688,0.0129661560058594,0,
00:00:00.088,-0.000171661376953125,-0.000274658203125,0.0129718780517578,0,
00:00:00.092,-0.000171661376953125,-0.000274658203125,0.0129776000976563,0,
00:00:00.096,-0.000177383422851563,-0.000291824340820313,0.0129776000976563,0,
00:00:00.1,-0.00018310546875,-0.000291824340820313,0.0129718780517578,0,
00:00:00.104,-0.00018310546875,-0.000303268432617188,0.0129833221435547,0,
00:00:00.108,-0.000194549560546875,-0.000303268432617188,0.0129947662353516,0,
00:00:00.112,-0.00020599365234375,-0.000280380249023438,0.0129890441894531,0,
00:00:00.116,-0.000165939331054688,-0.000274658203125,0.0129890441894531,0,
00:00:00.12,-0.000171661376953125,-0.000291824340820313,0.0129947662353516,0,
00:00:00.124,-0.000171661376953125,-0.000308990478515625,0.01300048828125,0,
00:00:00.128,-0.000171661376953125,-0.000314712524414063,0.0130062103271484,0,
00:00:00.132,-0.000171661376953125,-0.000286102294921875,0.0130176544189453,0,
00:00:00.136,-0.000171661376953125,-0.000274658203125,0.0130176544189453,0,
00:00:00.14,-0.00016021728515625,-0.000280380249023438,0.0130176544189453,0,
00:00:00.144,-0.000177383422851563,-0.00029754638671875,0.0130233764648438,0,
00:00:00.148,-0.000188827514648438,-0.000303268432617188,0.0130290985107422,0,
00:00:00.152,-0.000171661376953125,-0.00029754638671875,0.0130348205566406,0,
00:00:00.156,-0.000165939331054688,-0.000303268432617188,0.0130348205566406,0,
00:00:00.16,-0.000171661376953125,-0.000308990478515625,0.0130405426025391,0,
00:00:00.164,-0.000165939331054688,-0.00029754638671875,0.0130462646484375,0,
00:00:00.168,-0.000165939331054688,-0.000280380249023438,0.0130577087402344,0,
00:00:00.172,-0.000171661376953125,-0.000280380249023438,0.0130577087402344,0,
00:00:00.176,-0.000177383422851563,-0.00029754638671875,0.0130634307861328,0,
00:00:00.18,-0.000171661376953125,-0.000314712524414063,0.0130634307861328,0,
00:00:00.184,-0.000177383422851563,-0.000326156616210938,0.0130691528320313,0,
00:00:00.188,-0.000177383422851563,-0.000308990478515625,0.0130748748779297,0,
00:00:00.192,-0.00018310546875,-0.000291824340820313,0.0130805969238281,0,
00:00:00.196,-0.00018310546875,-0.00029754638671875,0.0130863189697266,0,
00:00:00.2,-0.000171661376953125,-0.0003204345703125,0.0130863189697266,0,
00:00:00.204,-0.000171661376953125,-0.000331878662109375,0.0130977630615234,0,
00:00:00.208,-0.00018310546875,-0.000314712524414063,0.0131034851074219,0,
00:00:00.212,-0.000165939331054688,-0.000308990478515625,0.0131092071533203,0,
00:00:00.216,-0.000171661376953125,-0.000314712524414063,0.0130977630615234,0,
00:00:00.22,-0.000177383422851563,-0.000314712524414063,0.0131034851074219,0,
00:00:00.224,-0.000171661376953125,-0.000308990478515625,0.0131149291992188,0,
00:00:00.228,-0.000177383422851563,-0.000314712524414063,0.0131206512451172,0,
00:00:00.232,-0.00016021728515625,-0.000314712524414063,0.0131320953369141,0,
00:00:00.236,-0.000171661376953125,-0.000331878662109375,0.0131320953369141,0,
00:00:00.24,-0.000177383422851563,-0.00034332275390625,0.0131320953369141,0,
00:00:00.244,-0.000165939331054688,-0.000326156616210938,0.0131378173828125,0,
00:00:00.248,-0.000165939331054688,-0.00029754638671875,0.0131492614746094,0,
00:00:00.252,-0.00016021728515625,-0.000308990478515625,0.0131549835205078,0,
00:00:00.256,-0.000171661376953125,-0.000331878662109375,0.0131549835205078,0,
00:00:00.26,-0.000188827514648438,-0.000349044799804688,0.0131607055664063,0,
00:00:00.264,-0.000171661376953125,-0.00034332275390625,0.0131664276123047,0,
00:00:00.268,-0.00016021728515625,-0.000303268432617188,0.0131721496582031,0,
00:00:00.272,-0.000165939331054688,-0.000303268432617188,0.0131778717041016,0,
00:00:00.276,-0.00016021728515625,-0.000314712524414063,0.01318359375,0,
00:00:00.28,-0.00016021728515625,-0.0003204345703125,0.01318359375,0,
00:00:00.284,-0.000165939331054688,-0.000331878662109375,0.0131893157958984,0,
00:00:00.288,-0.000165939331054688,-0.00034332275390625,0.0132007598876953,0,
00:00:00.292,-0.000171661376953125,-0.00034332275390625,0.0132064819335938,0,
00:00:00.296,-0.000171661376953125,-0.000331878662109375,0.0132064819335938,0,
00:00:00.3,-0.00016021728515625,-0.000331878662109375,0.0132122039794922,0,
00:00:00.304,-0.00016021728515625,-0.00034332275390625,0.0132179260253906,0,
00:00:00.308,-0.000165939331054688,-0.00034332275390625,0.0132293701171875,0,
00:00:00.312,-0.00016021728515625,-0.000337600708007813,0.0132293701171875,0,
00:00:00.316,-0.00016021728515625,-0.00034332275390625,0.0132293701171875,0,
00:00:00.32,-0.000165939331054688,-0.00034332275390625,0.0132350921630859,0,
00:00:00.324,-0.00016021728515625,-0.00034332275390625,0.0132408142089844,0,
00:00:00.328,-0.00016021728515625,-0.000354766845703125,0.0132522583007813,0,
00:00:00.332,-0.000165939331054688,-0.000360488891601563,0.0132522583007813,0,
00:00:00.336,-0.000171661376953125,-0.00034332275390625,0.0132579803466797,0,
00:00:00.34,-0.000177383422851563,-0.00034332275390625,0.0132637023925781,0,
00:00:00.344,-0.000154495239257813,-0.000354766845703125,0.013275146484375,0,
00:00:00.348,-0.000143051147460938,-0.0003662109375,0.0132808685302734,0,
00:00:00.352,-0.000154495239257813,-0.000354766845703125,0.0132694244384766,0,
00:00:00.356,-0.000143051147460938,-0.00034332275390625,0.0132808685302734,0,
00:00:00.36,-0.000148773193359375,-0.00034332275390625,0.0132865905761719,0,
00:00:00.364,-0.000148773193359375,-0.00034332275390625,0.0132923126220703,0,
00:00:00.368,-0.000154495239257813,-0.000360488891601563,0.0133037567138672,0,
00:00:00.372,-0.00016021728515625,-0.000377655029296875,0.0133094787597656,0,
00:00:00.376,-0.00016021728515625,-0.000371932983398438,0.0133152008056641,0,
00:00:00.38,-0.000148773193359375,-0.000354766845703125,0.0133152008056641,0,
00:00:00.384,-0.000148773193359375,-0.000349044799804688,0.0133152008056641,0,
00:00:00.388,-0.000148773193359375,-0.000337600708007813,0.0133266448974609,0,
00:00:00.392,-0.000148773193359375,-0.000354766845703125,0.0133323669433594,0,
00:00:00.396,-0.000154495239257813,-0.0003662109375,0.0133380889892578,0,
00:00:00.4,-0.000154495239257813,-0.000377655029296875,0.0133438110351563,0,
00:00:00.404,-0.000154495239257813,-0.000383377075195313,0.0133495330810547,0,
00:00:00.408,-0.000148773193359375,-0.000377655029296875,0.0133552551269531,0,
00:00:00.412,-0.000154495239257813,-0.000377655029296875,0.0133609771728516,0,
00:00:00.416,-0.000143051147460938,-0.0003662109375,0.01336669921875,0,
00:00:00.42,-0.0001373291015625,-0.000360488891601563,0.01336669921875,0,
00:00:00.424,-0.000143051147460938,-0.000371932983398438,0.0133781433105469,0,
00:00:00.428,-0.000143051147460938,-0.0003662109375,0.0133838653564453,0,
00:00:00.432,-0.0001373291015625,-0.0003662109375,0.0133895874023438,0,
00:00:00.436,-0.0001373291015625,-0.000377655029296875,0.0133953094482422,0,
00:00:00.44,-0.0001373291015625,-0.000371932983398438,0.0133953094482422,0,
00:00:00.444,-0.0001373291015625,-0.000371932983398438,0.0134067535400391,0,
00:00:00.448,-0.0001373291015625,-0.000371932983398438,0.0134067535400391,0,
00:00:00.452,-0.0001373291015625,-0.000371932983398438,0.0134124755859375,0,
00:00:00.456,-0.000154495239257813,-0.000394821166992188,0.0134181976318359,0,
00:00:00.46,-0.000143051147460938,-0.000406265258789063,0.0134181976318359,0,
00:00:00.464,-0.0001373291015625,-0.000394821166992188,0.0134296417236328,0,
00:00:00.468,-0.000125885009765625,-0.000383377075195313,0.0134353637695313,0,
00:00:00.472,-0.000148773193359375,-0.000394821166992188,0.0134410858154297,0,
00:00:00.476,-0.000148773193359375,-0.0004119873046875,0.0134468078613281,0,
00:00:00.48,-0.000131607055664063,-0.0004119873046875,0.0134525299072266,0,
00:00:00.484,-0.000125885009765625,-0.000406265258789063,0.0134639739990234,0,
00:00:00.488,-0.000131607055664063,-0.000383377075195313,0.0134639739990234,0,
00:00:00.492,-0.000108718872070313,-0.000354766845703125,0.0134639739990234,0,
00:00:00.496,-0.00011444091796875,-0.000377655029296875,0.0134639739990234,0,
00:00:00.5,-0.000125885009765625,-0.0004119873046875,0.0134696960449219,0,
00:00:00.504,-0.000143051147460938,-0.00043487548828125,0.0134754180908203,0,
00:00:00.508,-0.000143051147460938,-0.000440597534179688,0.0134868621826172,0,
00:00:00.512,-0.0001373291015625,-0.000406265258789063,0.0134925842285156,0,
00:00:00.516,-0.000108718872070313,-0.000354766845703125,0.0134925842285156,0,
00:00:00.52,-0.00011444091796875,-0.000371932983398438,0.0134983062744141,0,
00:00:00.524,-0.000125885009765625,-0.000400543212890625,0.0135040283203125,0,
00:00:00.528,-0.000125885009765625,-0.000400543212890625,0.0135097503662109,0,
00:00:00.532,-0.000120162963867188,-0.000400543212890625,0.0135154724121094,0,
00:00:00.536,-0.000120162963867188,-0.0004119873046875,0.0135211944580078,0,
00:00:00.54,-0.000125885009765625,-0.000417709350585938,0.0135269165039063,0,
00:00:00.544,-0.000131607055664063,-0.0004119873046875,0.0135326385498047,0,
00:00:00.548,-0.000120162963867188,-0.000423431396484375,0.0135326385498047,0,
00:00:00.552,-0.00011444091796875,-0.000417709350585938,0.0135440826416016,0,
00:00:00.556,-0.000120162963867188,-0.000417709350585938,0.0135440826416016,0,
00:00:00.56,-0.000120162963867188,-0.00043487548828125,0.0135498046875,0,
00:00:00.564,-0.000131607055664063,-0.000446319580078125,0.0135555267333984,0,
00:00:00.568,-0.000131607055664063,-0.000429153442382813,0.0135612487792969,0,
00:00:00.572,-0.000125885009765625,-0.000429153442382813,0.0135669708251953,0,
00:00:00.576,-0.000120162963867188,-0.000429153442382813,0.0135726928710938,0,
00:00:00.58,-0.00011444091796875,-0.000400543212890625,0.0135669708251953,0,
00:00:00.584,-0.00011444091796875,-0.000400543212890625,0.0135784149169922,0,
00:00:00.588,-0.0001373291015625,-0.0004119873046875,0.0135841369628906,0,
00:00:00.592,-0.000120162963867188,-0.0004119873046875,0.0135898590087891,0,
00:00:00.596,-0.00011444091796875,-0.000417709350585938,0.0135898590087891,0,
00:00:00.6,-0.000108718872070313,-0.000429153442382813,0.0135955810546875,0,
00:00:00.604,-0.00011444091796875,-0.000429153442382813,0.0136013031005859,0,
00:00:00.608,-0.000120162963867188,-0.000429153442382813,0.0136070251464844,0,
00:00:00.612,-9.72747802734375E-05,-0.000429153442382813,0.0136070251464844,0,
00:00:00.616,-0.000102996826171875,-0.000429153442382813,0.0136127471923828,0,
00:00:00.62,-0.000102996826171875,-0.000423431396484375,0.0136127471923828,0,
00:00:00.624,-0.000108718872070313,-0.000429153442382813,0.0136241912841797,0,
00:00:00.628,-0.000108718872070313,-0.00043487548828125,0.0136299133300781,0,
00:00:00.632,-0.000108718872070313,-0.000440597534179688,0.0136356353759766,0,
00:00:00.636,-0.00011444091796875,-0.000446319580078125,0.0136356353759766,0,
00:00:00.64,-0.00011444091796875,-0.000440597534179688,0.0136356353759766,0,
00:00:00.644,-0.000108718872070313,-0.00043487548828125,0.013641357421875,0,
00:00:00.648,-0.000108718872070313,-0.000440597534179688,0.0136470794677734,0,
00:00:00.652,-0.00011444091796875,-0.000452041625976563,0.0136528015136719,0,
00:00:00.656,-0.00011444091796875,-0.000452041625976563,0.0136528015136719,0,
00:00:00.66,-0.000102996826171875,-0.00043487548828125,0.0136585235595703,0,
00:00:00.664,-0.00011444091796875,-0.000429153442382813,0.0136585235595703,0,
00:00:00.668,-0.00011444091796875,-0.000446319580078125,0.0136699676513672,0,
00:00:00.672,-0.000108718872070313,-0.000469207763671875,0.0136699676513672,0,
00:00:00.676,-0.00011444091796875,-0.000457763671875,0.0136756896972656,0,
00:00:00.68,-0.000108718872070313,-0.000463485717773438,0.0136814117431641,0,
00:00:00.684,-0.000102996826171875,-0.00043487548828125,0.0136814117431641,0,
00:00:00.688,-9.1552734375E-05,-0.0004119873046875,0.0136871337890625,0,
00:00:00.692,-9.72747802734375E-05,-0.000429153442382813,0.0136928558349609,0,
00:00:00.696,-0.000108718872070313,-0.000440597534179688,0.0136928558349609,0,
00:00:00.7,-0.000102996826171875,-0.00043487548828125,0.0136985778808594,0,
00:00:00.704,-0.000108718872070313,-0.000440597534179688,0.0137042999267578,0,
00:00:00.708,-0.000102996826171875,-0.000457763671875,0.0137100219726563,0,
00:00:00.712,-0.000102996826171875,-0.000474929809570313,0.0137042999267578,0,
00:00:00.716,-0.000102996826171875,-0.000474929809570313,0.0137100219726563,0,
00:00:00.72,-9.72747802734375E-05,-0.000446319580078125,0.0137157440185547,0,
00:00:00.724,-9.72747802734375E-05,-0.00043487548828125,0.0137157440185547,0,
00:00:00.728,-9.1552734375E-05,-0.00043487548828125,0.0137214660644531,0,
00:00:00.732,-9.72747802734375E-05,-0.000457763671875,0.0137271881103516,0,
00:00:00.736,-0.000102996826171875,-0.00048065185546875,0.01373291015625,0,
00:00:00.74,-0.000108718872070313,-0.000469207763671875,0.0137386322021484,0,
00:00:00.744,-0.000108718872070313,-0.000429153442382813,0.0137386322021484,0,
00:00:00.748,-0.000102996826171875,-0.000440597534179688,0.0137443542480469,0,
00:00:00.752,-8.58306884765625E-05,-0.000452041625976563,0.0137443542480469,0,
00:00:00.756,-9.1552734375E-05,-0.000457763671875,0.0137443542480469,0,
00:00:00.76,-9.1552734375E-05,-0.000457763671875,0.0137500762939453,0,
00:00:00.764,-9.72747802734375E-05,-0.000457763671875,0.0137500762939453,0,
00:00:00.768,-0.000102996826171875,-0.000452041625976563,0.0137557983398438,0,
00:00:00.772,-0.000108718872070313,-0.000440597534179688,0.0137615203857422,0,
00:00:00.776,-9.72747802734375E-05,-0.000463485717773438,0.0137672424316406,0,
00:00:00.78,-9.1552734375E-05,-0.00048065185546875,0.0137672424316406,0,
00:00:00.784,-7.43865966796875E-05,-0.000457763671875,0.0137672424316406,0,
00:00:00.788,-8.58306884765625E-05,-0.000452041625976563,0.0137786865234375,0,
00:00:00.792,-9.1552734375E-05,-0.000469207763671875,0.0137844085693359,0,
00:00:00.796,-8.58306884765625E-05,-0.000457763671875,0.0137786865234375,0,
00:00:00.8,-8.58306884765625E-05,-0.000457763671875,0.0137786865234375,0,
00:00:00.804,-9.1552734375E-05,-0.000469207763671875,0.0137844085693359,0,
00:00:00.808,-8.0108642578125E-05,-0.000469207763671875,0.0137901306152344,0,
00:00:00.812,-8.58306884765625E-05,-0.000463485717773438,0.0137958526611328,0,
00:00:00.816,-8.58306884765625E-05,-0.000452041625976563,0.0137958526611328,0,
00:00:00.82,-8.58306884765625E-05,-0.000452041625976563,0.0138015747070313,0,
00:00:00.824,-7.43865966796875E-05,-0.000446319580078125,0.0138072967529297,0,
00:00:00.828,-7.43865966796875E-05,-0.000452041625976563,0.0138187408447266,0,
00:00:00.832,-8.58306884765625E-05,-0.000469207763671875,0.0138187408447266,0,
00:00:00.836,-9.1552734375E-05,-0.000486373901367188,0.0138130187988281,0,
00:00:00.84,-8.58306884765625E-05,-0.000469207763671875,0.0138187408447266,0,
00:00:00.844,-8.0108642578125E-05,-0.000452041625976563,0.0138187408447266,0,
00:00:00.848,-8.58306884765625E-05,-0.000457763671875,0.013824462890625,0,
00:00:00.852,-8.0108642578125E-05,-0.000469207763671875,0.0138301849365234,0,
00:00:00.856,-8.58306884765625E-05,-0.000492095947265625,0.0138301849365234,0,
00:00:00.86,-8.58306884765625E-05,-0.00048065185546875,0.0138301849365234,0,
00:00:00.864,-8.0108642578125E-05,-0.000452041625976563,0.0138359069824219,0,
00:00:00.868,-9.1552734375E-05,-0.000457763671875,0.0138416290283203,0,
00:00:00.872,-8.0108642578125E-05,-0.000474929809570313,0.0138416290283203,0,
00:00:00.876,-6.866455078125E-05,-0.000474929809570313,0.0138473510742188,0,
00:00:00.88,-8.58306884765625E-05,-0.0005035400390625,0.0138473510742188,0,
00:00:00.884,-0.000120162963867188,-0.000520706176757813,0.0138473510742188,0,
00:00:00.888,-9.1552734375E-05,-0.00048065185546875,0.0138530731201172,0,
00:00:00.892,-5.14984130859375E-05,-0.000440597534179688,0.0138587951660156,0,
00:00:00.896,-6.866455078125E-05,-0.000457763671875,0.0138530731201172,0,
00:00:00.9,-7.43865966796875E-05,-0.000474929809570313,0.0138587951660156,0,
00:00:00.904,-7.43865966796875E-05,-0.000469207763671875,0.0138645172119141,0,
00:00:00.908,-7.43865966796875E-05,-0.000474929809570313,0.0138702392578125,0,
00:00:00.912,-9.1552734375E-05,-0.00048065185546875,0.0138759613037109,0,
00:00:00.916,-8.0108642578125E-05,-0.000474929809570313,0.0138759613037109,0,
00:00:00.92,-6.866455078125E-05,-0.000474929809570313,0.0138759613037109,0,
00:00:00.924,-6.866455078125E-05,-0.000474929809570313,0.0138759613037109,0,
00:00:00.928,-6.866455078125E-05,-0.000469207763671875,0.0138816833496094,0,
00:00:00.932,-7.43865966796875E-05,-0.000469207763671875,0.0138874053955078,0,
00:00:00.936,-7.43865966796875E-05,-0.000469207763671875,0.0138874053955078,0,
00:00:00.94,-7.43865966796875E-05,-0.000474929809570313,0.0138874053955078,0,
00:00:00.944,-7.43865966796875E-05,-0.000486373901367188,0.0138931274414063,0,
00:00:00.948,-7.43865966796875E-05,-0.000486373901367188,0.0138988494873047,0,
00:00:00.952,-7.43865966796875E-05,-0.00048065185546875,0.0138988494873047,0,
00:00:00.956,-8.0108642578125E-05,-0.000486373901367188,0.0138988494873047,0,
00:00:00.96,-8.58306884765625E-05,-0.000509262084960938,0.0138988494873047,0,
00:00:00.964,-9.1552734375E-05,-0.0005035400390625,0.0139102935791016,0,
00:00:00.968,-8.0108642578125E-05,-0.000469207763671875,0.0139217376708984,0,
00:00:00.972,-9.1552734375E-05,-0.000469207763671875,0.0139045715332031,0,
00:00:00.976,-8.58306884765625E-05,-0.00048065185546875,0.0139045715332031,0,
00:00:00.98,-5.7220458984375E-05,-0.000474929809570313,0.0139045715332031,0,
00:00:00.984,-6.29425048828125E-05,-0.000463485717773438,0.0139045715332031,0,
00:00:00.988,-6.29425048828125E-05,-0.000469207763671875,0.0139102935791016,0,
00:00:00.992,-6.866455078125E-05,-0.000474929809570313,0.0139217376708984,0,
00:00:00.996,-6.29425048828125E-05,-0.000474929809570313,0.013916015625,0,
00:00:01,-5.7220458984375E-05,-0.000492095947265625,0.0139102935791016,0,
00:00:01.004,-6.866455078125E-05,-0.000509262084960938,0.013916015625,0,
00:00:01.008,-6.866455078125E-05,-0.000492095947265625,0.0139274597167969,0,
00:00:01.012,-6.866455078125E-05,-0.000469207763671875,0.0139274597167969,0,
00:00:01.016,-6.866455078125E-05,-0.00048065185546875,0.0139274597167969,0,
00:00:01.02,-7.43865966796875E-05,-0.00048065185546875,0.0139274597167969,0,
00:00:01.024,-6.29425048828125E-05,-0.00048065185546875,0.0139331817626953,0,
00:00:01.028,-6.866455078125E-05,-0.000497817993164063,0.0139389038085938,0,
00:00:01.032,-6.29425048828125E-05,-0.000492095947265625,0.0139389038085938,0,
00:00:01.036,-6.29425048828125E-05,-0.000469207763671875,0.0139389038085938,0,
00:00:01.04,-6.29425048828125E-05,-0.000463485717773438,0.0139389038085938,0,
00:00:01.044,-6.866455078125E-05,-0.00048065185546875,0.0139446258544922,0,
00:00:01.048,-8.0108642578125E-05,-0.000492095947265625,0.0139446258544922,0,
00:00:01.052,-6.866455078125E-05,-0.00048065185546875,0.0139503479003906,0,
00:00:01.056,-5.7220458984375E-05,-0.000474929809570313,0.0139503479003906,0,
00:00:01.06,-6.29425048828125E-05,-0.000486373901367188,0.0139503479003906,0,
00:00:01.064,-6.29425048828125E-05,-0.000492095947265625,0.0139560699462891,0,
00:00:01.068,-6.29425048828125E-05,-0.00048065185546875,0.0139617919921875,0,
00:00:01.072,-8.58306884765625E-05,-0.000474929809570313,0.0139560699462891,0,
00:00:01.076,-8.0108642578125E-05,-0.000474929809570313,0.0139560699462891,0,
00:00:01.08,-6.866455078125E-05,-0.000474929809570313,0.0139560699462891,0,
00:00:01.084,-4.57763671875E-05,-0.00048065185546875,0.0139560699462891,0,
00:00:01.088,-6.29425048828125E-05,-0.0005035400390625,0.0139617919921875,0,
00:00:01.092,-6.29425048828125E-05,-0.0005035400390625,0.0139675140380859,0,
00:00:01.096,-5.7220458984375E-05,-0.000492095947265625,0.0139675140380859,0,
00:00:01.1,-6.866455078125E-05,-0.000497817993164063,0.0139675140380859,0,
00:00:01.104,-6.29425048828125E-05,-0.000492095947265625,0.0139675140380859,0,
00:00:01.108,-5.7220458984375E-05,-0.000474929809570313,0.0139732360839844,0,
00:00:01.112,-6.29425048828125E-05,-0.000474929809570313,0.0139789581298828,0,
00:00:01.116,-5.7220458984375E-05,-0.000486373901367188,0.0139789581298828,0,
00:00:01.12,-5.14984130859375E-05,-0.000486373901367188,0.0139732360839844,0,
00:00:01.124,-6.866455078125E-05,-0.000486373901367188,0.0139732360839844,0,
00:00:01.128,-7.43865966796875E-05,-0.000486373901367188,0.0139789581298828,0,
00:00:01.132,-5.7220458984375E-05,-0.000474929809570313,0.0139846801757813,0,
00:00:01.136,-5.7220458984375E-05,-0.000486373901367188,0.0139846801757813,0,
00:00:01.14,-5.14984130859375E-05,-0.000486373901367188,0.0139846801757813,0,
00:00:01.144,-5.7220458984375E-05,-0.000474929809570313,0.0139846801757813,0,
00:00:01.148,-6.29425048828125E-05,-0.000492095947265625,0.0139904022216797,0,
00:00:01.152,-8.0108642578125E-05,-0.000497817993164063,0.014007568359375,0,
00:00:01.156,-7.43865966796875E-05,-0.000492095947265625,0.0139904022216797,0,
00:00:01.16,-4.57763671875E-05,-0.00048065185546875,0.0139789581298828,0,
00:00:01.164,-5.14984130859375E-05,-0.000492095947265625,0.0139846801757813,0,
00:00:01.168,-5.7220458984375E-05,-0.00048065185546875,0.0139904022216797,0,
00:00:01.172,-6.29425048828125E-05,-0.000469207763671875,0.0139961242675781,0,
00:00:01.176,-6.29425048828125E-05,-0.000497817993164063,0.0139961242675781,0,
00:00:01.18,-6.29425048828125E-05,-0.00052642822265625,0.0139904022216797,0,
00:00:01.184,-6.866455078125E-05,-0.000497817993164063,0.0139961242675781,0,
00:00:01.188,-5.14984130859375E-05,-0.000463485717773438,0.0140018463134766,0,
00:00:01.192,-5.14984130859375E-05,-0.000474929809570313,0.0140018463134766,0,
00:00:01.196,-6.29425048828125E-05,-0.000497817993164063,0.0140018463134766,0,
00:00:01.2,-6.866455078125E-05,-0.000497817993164063,0.0140018463134766,0,
00:00:01.204,-5.7220458984375E-05,-0.000474929809570313,0.0140018463134766,0,
00:00:01.208,-5.14984130859375E-05,-0.000469207763671875,0.014007568359375,0,
00:00:01.212,-5.14984130859375E-05,-0.000469207763671875,0.0140132904052734,0,
00:00:01.216,-5.14984130859375E-05,-0.000469207763671875,0.0140132904052734,0,
00:00:01.22,-5.7220458984375E-05,-0.00048065185546875,0.014007568359375,0,
00:00:01.224,-6.29425048828125E-05,-0.0005035400390625,0.0140132904052734,0,
00:00:01.228,-6.29425048828125E-05,-0.000497817993164063,0.0140190124511719,0,
00:00:01.232,-5.14984130859375E-05,-0.000469207763671875,0.0140190124511719,0,
00:00:01.236,-5.14984130859375E-05,-0.000469207763671875,0.0140190124511719,0,
00:00:01.24,-6.29425048828125E-05,-0.000474929809570313,0.0140190124511719,0,
00:00:01.244,-5.7220458984375E-05,-0.00048065185546875,0.0140190124511719,0,
00:00:01.248,-7.43865966796875E-05,-0.0005035400390625,0.0140247344970703,0,
00:00:01.252,-7.43865966796875E-05,-0.000509262084960938,0.0140247344970703,0,
00:00:01.256,-6.29425048828125E-05,-0.000486373901367188,0.0140190124511719,0,
00:00:01.26,-5.7220458984375E-05,-0.000474929809570313,0.0140190124511719,0,
00:00:01.264,-6.29425048828125E-05,-0.000474929809570313,0.0140247344970703,0,
00:00:01.268,-5.14984130859375E-05,-0.000469207763671875,0.0140361785888672,0,
00:00:01.272,-3.4332275390625E-05,-0.000469207763671875,0.0140304565429688,0,
00:00:01.276,-5.14984130859375E-05,-0.000486373901367188,0.0140190124511719,0,
00:00:01.28,-5.7220458984375E-05,-0.000497817993164063,0.0140247344970703,0,
00:00:01.284,-5.7220458984375E-05,-0.00048065185546875,0.0140304565429688,0,
00:00:01.288,-5.7220458984375E-05,-0.00048065185546875,0.0140304565429688,0,
00:00:01.292,-6.29425048828125E-05,-0.00048065185546875,0.0140361785888672,0,
00:00:01.296,-5.14984130859375E-05,-0.000469207763671875,0.0140361785888672,0,
00:00:01.3,-5.14984130859375E-05,-0.000474929809570313,0.0140304565429688,0,
00:00:01.304,-4.57763671875E-05,-0.00048065185546875,0.0140361785888672,0,
00:00:01.308,-6.866455078125E-05,-0.00048065185546875,0.0140476226806641,0,
00:00:01.312,-6.29425048828125E-05,-0.000486373901367188,0.0140361785888672,0,
00:00:01.316,-4.57763671875E-05,-0.00048065185546875,0.0140361785888672,0,
00:00:01.32,-5.14984130859375E-05,-0.000474929809570313,0.0140361785888672,0,
00:00:01.324,-5.14984130859375E-05,-0.000457763671875,0.0140361785888672,0,
00:00:01.328,-5.7220458984375E-05,-0.000463485717773438,0.0140419006347656,0,
00:00:01.332,-5.7220458984375E-05,-0.000486373901367188,0.0140419006347656,0,
00:00:01.336,-6.29425048828125E-05,-0.000509262084960938,0.0140419006347656,0,
00:00:01.34,-5.7220458984375E-05,-0.0005035400390625,0.0140476226806641,0,
00:00:01.344,-4.57763671875E-05,-0.000452041625976563,0.0140476226806641,0,
00:00:01.348,-5.14984130859375E-05,-0.000446319580078125,0.0140533447265625,0,
00:00:01.352,-4.57763671875E-05,-0.000457763671875,0.0140476226806641,0,
00:00:01.356,-4.00543212890625E-05,-0.000469207763671875,0.0140476226806641,0,
00:00:01.36,-5.14984130859375E-05,-0.000497817993164063,0.0140476226806641,0,
00:00:01.364,-6.866455078125E-05,-0.000509262084960938,0.0140476226806641,0,
00:00:01.368,-6.29425048828125E-05,-0.00048065185546875,0.0140533447265625,0,
00:00:01.372,-4.57763671875E-05,-0.000457763671875,0.0140590667724609,0,
00:00:01.376,-3.4332275390625E-05,-0.000446319580078125,0.0140533447265625,0,
00:00:01.38,-4.00543212890625E-05,-0.000457763671875,0.0140533447265625,0,
00:00:01.384,-5.14984130859375E-05,-0.000469207763671875,0.0140533447265625,0,
00:00:01.388,-5.7220458984375E-05,-0.000486373901367188,0.0140533447265625,0,
00:00:01.392,-6.866455078125E-05,-0.0005035400390625,0.0140533447265625,0,
00:00:01.396,-6.29425048828125E-05,-0.00048065185546875,0.0140533447265625,0,
00:00:01.4,-5.7220458984375E-05,-0.000457763671875,0.0140533447265625,0,
00:00:01.404,-5.7220458984375E-05,-0.000474929809570313,0.0140590667724609,0,
00:00:01.408,-6.29425048828125E-05,-0.000514984130859375,0.0140590667724609,0,
00:00:01.412,-6.866455078125E-05,-0.000514984130859375,0.0140647888183594,0,
00:00:01.416,-5.14984130859375E-05,-0.000474929809570313,0.0140647888183594,0,
00:00:01.42,-4.57763671875E-05,-0.000457763671875,0.0140590667724609,0,
00:00:01.424,-5.7220458984375E-05,-0.000446319580078125,0.0140647888183594,0,
00:00:01.428,-5.14984130859375E-05,-0.000452041625976563,0.0140647888183594,0,
00:00:01.432,-4.57763671875E-05,-0.000463485717773438,0.0140705108642578,0,
00:00:01.436,-5.7220458984375E-05,-0.00048065185546875,0.0140647888183594,0,
00:00:01.44,-6.29425048828125E-05,-0.000497817993164063,0.0140590667724609,0,
00:00:01.444,-9.1552734375E-05,-0.000492095947265625,0.0140647888183594,0,
00:00:01.448,-6.29425048828125E-05,-0.000457763671875,0.0140647888183594,0,
00:00:01.452,-3.4332275390625E-05,-0.000452041625976563,0.0140647888183594,0,
00:00:01.456,-4.57763671875E-05,-0.000469207763671875,0.0140647888183594,0,
00:00:01.46,-4.57763671875E-05,-0.000474929809570313,0.0140647888183594,0,
00:00:01.464,-5.7220458984375E-05,-0.000474929809570313,0.0140647888183594,0,
00:00:01.468,-5.14984130859375E-05,-0.000463485717773438,0.0140705108642578,0,
00:00:01.472,-5.7220458984375E-05,-0.000463485717773438,0.0140705108642578,0,
00:00:01.476,-5.7220458984375E-05,-0.000469207763671875,0.0140705108642578,0,
00:00:01.48,-6.29425048828125E-05,-0.00048065185546875,0.0140762329101563,0,
00:00:01.484,-5.7220458984375E-05,-0.00048065185546875,0.0140819549560547,0,
00:00:01.488,-6.29425048828125E-05,-0.000492095947265625,0.0140762329101563,0,
00:00:01.492,-6.29425048828125E-05,-0.000474929809570313,0.0140705108642578,0,
00:00:01.496,-5.14984130859375E-05,-0.000463485717773438,0.0140705108642578,0,
00:00:01.5,-5.14984130859375E-05,-0.000457763671875,0.0140762329101563,0,
00:00:01.504,-5.14984130859375E-05,-0.000457763671875,0.0140762329101563,0,
00:00:01.508,-5.7220458984375E-05,-0.000457763671875,0.0140762329101563,0,
00:00:01.512,-5.7220458984375E-05,-0.000474929809570313,0.0140819549560547,0,
00:00:01.516,-6.29425048828125E-05,-0.000486373901367188,0.0140819549560547,0,
00:00:01.52,-8.0108642578125E-05,-0.000474929809570313,0.0140819549560547,0,
00:00:01.524,-6.866455078125E-05,-0.000457763671875,0.0140819549560547,0,
00:00:01.528,-5.7220458984375E-05,-0.000463485717773438,0.0140876770019531,0,
00:00:01.532,-4.57763671875E-05,-0.000474929809570313,0.0140819549560547,0,
00:00:01.536,-5.14984130859375E-05,-0.000463485717773438,0.0140762329101563,0,
00:00:01.54,-5.14984130859375E-05,-0.000463485717773438,0.0140819549560547,0,
00:00:01.544,-5.7220458984375E-05,-0.000463485717773438,0.0140819549560547,0,
00:00:01.548,-5.7220458984375E-05,-0.000469207763671875,0.0140876770019531,0,
00:00:01.552,-6.29425048828125E-05,-0.00048065185546875,0.0140876770019531,0,
00:00:01.556,-6.866455078125E-05,-0.000509262084960938,0.0140819549560547,0,
00:00:01.56,-6.29425048828125E-05,-0.000486373901367188,0.0140819549560547,0,
00:00:01.564,-5.14984130859375E-05,-0.00043487548828125,0.0140819549560547,0,
00:00:01.568,-4.57763671875E-05,-0.000440597534179688,0.0140876770019531,0,
00:00:01.572,-5.7220458984375E-05,-0.000457763671875,0.0140876770019531,0,
00:00:01.576,-5.14984130859375E-05,-0.000469207763671875,0.0140876770019531,0,
00:00:01.58,-5.7220458984375E-05,-0.000474929809570313,0.0140876770019531,0,
00:00:01.584,-5.7220458984375E-05,-0.000474929809570313,0.0140933990478516,0,
00:00:01.588,-5.7220458984375E-05,-0.00048065185546875,0.0140933990478516,0,
00:00:01.592,-7.43865966796875E-05,-0.000492095947265625,0.0140819549560547,0,
00:00:01.596,-6.866455078125E-05,-0.000474929809570313,0.0140819549560547,0,
00:00:01.6,-5.14984130859375E-05,-0.000463485717773438,0.0140819549560547,0,
00:00:01.604,-6.29425048828125E-05,-0.000469207763671875,0.0140876770019531,0,
00:00:01.608,-6.866455078125E-05,-0.000474929809570313,0.0140876770019531,0,
00:00:01.612,-5.14984130859375E-05,-0.000452041625976563,0.0140876770019531,0,
00:00:01.616,-5.14984130859375E-05,-0.000446319580078125,0.0140876770019531,0,
00:00:01.62,-6.29425048828125E-05,-0.000469207763671875,0.0140876770019531,0,
00:00:01.624,-6.29425048828125E-05,-0.000486373901367188,0.0140876770019531,0,
00:00:01.628,-6.29425048828125E-05,-0.000486373901367188,0.0140876770019531,0,
00:00:01.632,-6.866455078125E-05,-0.000474929809570313,0.0140876770019531,0,
00:00:01.636,-8.0108642578125E-05,-0.000463485717773438,0.0140933990478516,0,
00:00:01.64,-6.866455078125E-05,-0.000463485717773438,0.0140819549560547,0,
00:00:01.644,-5.7220458984375E-05,-0.000469207763671875,0.0140876770019531,0,
00:00:01.648,-5.7220458984375E-05,-0.000469207763671875,0.0140876770019531,0,
00:00:01.652,-6.29425048828125E-05,-0.000474929809570313,0.0140819549560547,0,
00:00:01.656,-5.7220458984375E-05,-0.000457763671875,0.0140876770019531,0,
00:00:01.66,-6.866455078125E-05,-0.000463485717773438,0.0140819549560547,0,
00:00:01.664,-5.14984130859375E-05,-0.000463485717773438,0.0140876770019531,0,
00:00:01.668,-5.14984130859375E-05,-0.000446319580078125,0.0140876770019531,0,
00:00:01.672,-5.14984130859375E-05,-0.000452041625976563,0.0140876770019531,0,
00:00:01.676,-6.29425048828125E-05,-0.000469207763671875,0.0140876770019531,0,
00:00:01.68,-6.866455078125E-05,-0.00048065185546875,0.0140819549560547,0,
00:00:01.684,-7.43865966796875E-05,-0.000469207763671875,0.0140819549560547,0,
00:00:01.688,-5.7220458984375E-05,-0.000452041625976563,0.0140876770019531,0,
00:00:01.692,-5.14984130859375E-05,-0.000457763671875,0.0140876770019531,0,
00:00:01.696,-6.29425048828125E-05,-0.000469207763671875,0.0140762329101563,0,
00:00:01.7,-7.43865966796875E-05,-0.000469207763671875,0.0140819549560547,0,
00:00:01.704,-6.29425048828125E-05,-0.000457763671875,0.0140876770019531,0,
00:00:01.708,-5.7220458984375E-05,-0.000457763671875,0.0140819549560547,0,
00:00:01.712,-5.7220458984375E-05,-0.000452041625976563,0.0140819549560547,0,
00:00:01.716,-5.7220458984375E-05,-0.000452041625976563,0.0140819549560547,0,
00:00:01.72,-6.29425048828125E-05,-0.000457763671875,0.0140819549560547,0,
00:00:01.724,-7.43865966796875E-05,-0.000457763671875,0.0140819549560547,0,
00:00:01.728,-7.43865966796875E-05,-0.000463485717773438,0.0140819549560547,0,
00:00:01.732,-6.29425048828125E-05,-0.000452041625976563,0.0140819549560547,0,
00:00:01.736,-7.43865966796875E-05,-0.000446319580078125,0.0140819549560547,0,
00:00:01.74,-6.29425048828125E-05,-0.000457763671875,0.0140876770019531,0,
00:00:01.744,-6.29425048828125E-05,-0.000469207763671875,0.0140819549560547,0,
00:00:01.748,-6.29425048828125E-05,-0.000457763671875,0.0140705108642578,0,
00:00:01.752,-7.43865966796875E-05,-0.000452041625976563,0.0140819549560547,0,
00:00:01.756,-6.29425048828125E-05,-0.000457763671875,0.0140762329101563,0,
00:00:01.76,-6.29425048828125E-05,-0.000474929809570313,0.0140762329101563,0,
00:00:01.764,-6.866455078125E-05,-0.000463485717773438,0.0140819549560547,0,
00:00:01.768,-6.29425048828125E-05,-0.00043487548828125,0.0140819549560547,0,
00:00:01.772,-5.7220458984375E-05,-0.000429153442382813,0.0140762329101563,0,
00:00:01.776,-6.29425048828125E-05,-0.000446319580078125,0.0140762329101563,0,
00:00:01.78,-6.866455078125E-05,-0.000440597534179688,0.0140762329101563,0,
00:00:01.784,-6.866455078125E-05,-0.000440597534179688,0.0140762329101563,0,
00:00:01.788,-6.29425048828125E-05,-0.000452041625976563,0.0140819549560547,0,
00:00:01.792,-6.866455078125E-05,-0.000463485717773438,0.0140819549560547,0,
00:00:01.796,-7.43865966796875E-05,-0.000463485717773438,0.0140762329101563,0,
00:00:01.8,-6.29425048828125E-05,-0.000446319580078125,0.0140762329101563,0,
00:00:01.804,-5.7220458984375E-05,-0.00043487548828125,0.0140819549560547,0,
00:00:01.808,-6.866455078125E-05,-0.00043487548828125,0.0140762329101563,0,
00:00:01.812,-6.866455078125E-05,-0.000446319580078125,0.0140819549560547,0,
00:00:01.816,-7.43865966796875E-05,-0.000457763671875,0.0140762329101563,0,
00:00:01.82,-6.866455078125E-05,-0.00043487548828125,0.0140762329101563,0,
00:00:01.824,-6.29425048828125E-05,-0.000429153442382813,0.0140762329101563,0,
00:00:01.828,-7.43865966796875E-05,-0.000446319580078125,0.0140762329101563,0,
00:00:01.832,-8.0108642578125E-05,-0.000463485717773438,0.0140705108642578,0,
00:00:01.836,-7.43865966796875E-05,-0.000463485717773438,0.0140705108642578,0,
00:00:01.84,-8.58306884765625E-05,-0.000446319580078125,0.0140762329101563,0,
00:00:01.844,-8.0108642578125E-05,-0.000429153442382813,0.0140762329101563,0,
00:00:01.848,-4.57763671875E-05,-0.000423431396484375,0.0140705108642578,0,
00:00:01.852,-6.29425048828125E-05,-0.000429153442382813,0.0140705108642578,0,
00:00:01.856,-5.7220458984375E-05,-0.000429153442382813,0.0140705108642578,0,
00:00:01.86,-5.7220458984375E-05,-0.000429153442382813,0.0140705108642578,0,
00:00:01.864,-6.29425048828125E-05,-0.000440597534179688,0.0140705108642578,0,
00:00:01.868,-6.866455078125E-05,-0.000440597534179688,0.0140705108642578,0,
00:00:01.872,-7.43865966796875E-05,-0.000440597534179688,0.0140705108642578,0,
00:00:01.876,-8.0108642578125E-05,-0.000452041625976563,0.0140705108642578,0,
00:00:01.88,-7.43865966796875E-05,-0.000452041625976563,0.0140647888183594,0,
00:00:01.884,-6.29425048828125E-05,-0.000423431396484375,0.0140705108642578,0,
00:00:01.888,-5.7220458984375E-05,-0.0004119873046875,0.0140705108642578,0,
00:00:01.892,-7.43865966796875E-05,-0.000429153442382813,0.0140705108642578,0,
00:00:01.896,-8.0108642578125E-05,-0.000452041625976563,0.0140647888183594,0,
00:00:01.9,-6.29425048828125E-05,-0.000452041625976563,0.0140590667724609,0,
00:00:01.904,-6.29425048828125E-05,-0.000429153442382813,0.0140647888183594,0,
00:00:01.908,-6.866455078125E-05,-0.000423431396484375,0.0140647888183594,0,
00:00:01.912,-6.866455078125E-05,-0.000423431396484375,0.0140647888183594,0,
00:00:01.916,-7.43865966796875E-05,-0.000423431396484375,0.0140590667724609,0,
00:00:01.92,-6.866455078125E-05,-0.000417709350585938,0.0140590667724609,0,
00:00:01.924,-7.43865966796875E-05,-0.000423431396484375,0.0140590667724609,0,
00:00:01.928,-7.43865966796875E-05,-0.000429153442382813,0.0140647888183594,0,
00:00:01.932,-6.866455078125E-05,-0.000423431396484375,0.0140762329101563,0,
00:00:01.936,-6.866455078125E-05,-0.000429153442382813,0.0140590667724609,0,
00:00:01.94,-8.58306884765625E-05,-0.000446319580078125,0.0140476226806641,0,
00:00:01.944,-0.00011444091796875,-0.000452041625976563,0.0140476226806641,0,
00:00:01.948,-8.58306884765625E-05,-0.0004119873046875,0.0140590667724609,0,
00:00:01.952,-8.0108642578125E-05,-0.0004119873046875,0.0140590667724609,0,
00:00:01.956,-6.29425048828125E-05,-0.000400543212890625,0.0140476226806641,0,
00:00:01.96,-7.43865966796875E-05,-0.000406265258789063,0.0140533447265625,0,
00:00:01.964,-0.000102996826171875,-0.000423431396484375,0.0140590667724609,0,
00:00:01.968,-6.866455078125E-05,-0.000429153442382813,0.0140476226806641,0,
00:00:01.972,-6.29425048828125E-05,-0.00043487548828125,0.0140533447265625,0,
00:00:01.976,-8.0108642578125E-05,-0.000452041625976563,0.0140476226806641,0,
00:00:01.98,-8.58306884765625E-05,-0.000452041625976563,0.0140476226806641,0,
00:00:01.984,-6.866455078125E-05,-0.000406265258789063,0.0140476226806641,0,
00:00:01.988,-7.43865966796875E-05,-0.000400543212890625,0.0140533447265625,0,
00:00:01.992,-7.43865966796875E-05,-0.000406265258789063,0.0140533447265625,0,
00:00:01.996,-7.43865966796875E-05,-0.000406265258789063,0.0140476226806641,0,
00:00:02,-8.58306884765625E-05,-0.000423431396484375,0.0140476226806641,0,
00:00:02.004,-9.1552734375E-05,-0.000440597534179688,0.0140476226806641,0,
00:00:02.008,-8.58306884765625E-05,-0.00043487548828125,0.0140476226806641,0,
00:00:02.012,-8.58306884765625E-05,-0.0004119873046875,0.0140476226806641,0,
00:00:02.016,-8.58306884765625E-05,-0.000406265258789063,0.0140476226806641,0,
00:00:02.02,-8.58306884765625E-05,-0.000406265258789063,0.0140476226806641,0,
00:00:02.024,-7.43865966796875E-05,-0.000394821166992188,0.0140419006347656,0,
00:00:02.028,-8.58306884765625E-05,-0.000406265258789063,0.0140476226806641,0,
00:00:02.032,-9.1552734375E-05,-0.0004119873046875,0.0140476226806641,0,
00:00:02.036,-8.58306884765625E-05,-0.0004119873046875,0.0140419006347656,0,
00:00:02.04,-9.1552734375E-05,-0.0004119873046875,0.0140419006347656,0,
00:00:02.044,-9.1552734375E-05,-0.0004119873046875,0.0140533447265625,0,
00:00:02.048,-8.0108642578125E-05,-0.000406265258789063,0.0140419006347656,0,
00:00:02.052,-9.1552734375E-05,-0.000423431396484375,0.0140361785888672,0,
00:00:02.056,-0.000102996826171875,-0.000429153442382813,0.0140361785888672,0,
00:00:02.06,-8.58306884765625E-05,-0.000417709350585938,0.0140361785888672,0,
00:00:02.064,-8.58306884765625E-05,-0.000406265258789063,0.0140419006347656,0,
00:00:02.068,-9.1552734375E-05,-0.000406265258789063,0.0140419006347656,0,
00:00:02.072,-8.58306884765625E-05,-0.000400543212890625,0.0140361785888672,0,
00:00:02.076,-8.0108642578125E-05,-0.000400543212890625,0.0140304565429688,0,
00:00:02.08,-8.58306884765625E-05,-0.0004119873046875,0.0140304565429688,0,
00:00:02.084,-9.72747802734375E-05,-0.000423431396484375,0.0140304565429688,0,
00:00:02.088,-9.72747802734375E-05,-0.000417709350585938,0.0140304565429688,0,
00:00:02.092,-9.1552734375E-05,-0.000400543212890625,0.0140361785888672,0,
00:00:02.096,-8.58306884765625E-05,-0.000400543212890625,0.0140361785888672,0,
00:00:02.1,-8.0108642578125E-05,-0.000406265258789063,0.0140247344970703,0,
00:00:02.104,-9.1552734375E-05,-0.000406265258789063,0.0140304565429688,0,
00:00:02.108,-9.1552734375E-05,-0.000394821166992188,0.0140247344970703,0,
00:00:02.112,-9.72747802734375E-05,-0.000400543212890625,0.0140247344970703,0,
00:00:02.116,-9.72747802734375E-05,-0.0004119873046875,0.0140247344970703,0,
00:00:02.12,-9.1552734375E-05,-0.000400543212890625,0.0140190124511719,0,
00:00:02.124,-8.0108642578125E-05,-0.00038909912109375,0.0140247344970703,0,
00:00:02.128,-8.58306884765625E-05,-0.000394821166992188,0.0140247344970703,0,
00:00:02.132,-0.000102996826171875,-0.0004119873046875,0.0140247344970703,0,
00:00:02.136,-0.000102996826171875,-0.000406265258789063,0.0140304565429688,0,
00:00:02.14,-9.1552734375E-05,-0.000400543212890625,0.0140247344970703,0,
00:00:02.144,-9.72747802734375E-05,-0.000406265258789063,0.0140190124511719,0,
00:00:02.148,-0.000102996826171875,-0.0004119873046875,0.0140190124511719,0,
00:00:02.152,-0.00011444091796875,-0.000394821166992188,0.0140190124511719,0,
00:00:02.156,-0.00011444091796875,-0.000394821166992188,0.0140247344970703,0,
00:00:02.16,-8.58306884765625E-05,-0.000406265258789063,0.0140132904052734,0,
00:00:02.164,-8.58306884765625E-05,-0.000406265258789063,0.0140132904052734,0,
00:00:02.168,-0.000102996826171875,-0.000406265258789063,0.0140190124511719,0,
00:00:02.172,-9.72747802734375E-05,-0.000400543212890625,0.0140132904052734,0,
00:00:02.176,-8.58306884765625E-05,-0.000377655029296875,0.0140132904052734,0,
00:00:02.18,-9.1552734375E-05,-0.0003662109375,0.0140132904052734,0,
00:00:02.184,-9.72747802734375E-05,-0.000371932983398438,0.0140132904052734,0,
00:00:02.188,-0.000102996826171875,-0.000394821166992188,0.0140132904052734,0,
00:00:02.192,-0.000102996826171875,-0.000394821166992188,0.0140132904052734,0,
00:00:02.196,-9.72747802734375E-05,-0.00038909912109375,0.0140132904052734,0,
00:00:02.2,-0.000102996826171875,-0.000383377075195313,0.014007568359375,0,
00:00:02.204,-0.000102996826171875,-0.00038909912109375,0.0140132904052734,0,
00:00:02.208,-0.000108718872070313,-0.000406265258789063,0.0140132904052734,0,
00:00:02.212,-0.000108718872070313,-0.000406265258789063,0.0140132904052734,0,
00:00:02.216,-9.72747802734375E-05,-0.000377655029296875,0.0140132904052734,0,
00:00:02.22,-9.1552734375E-05,-0.000371932983398438,0.014007568359375,0,
00:00:02.224,-9.72747802734375E-05,-0.000377655029296875,0.014007568359375,0,
00:00:02.228,-9.1552734375E-05,-0.000377655029296875,0.014007568359375,0,
00:00:02.232,-9.72747802734375E-05,-0.000377655029296875,0.0140018463134766,0,
00:00:02.236,-9.72747802734375E-05,-0.000383377075195313,0.0140018463134766,0,
00:00:02.24,-9.72747802734375E-05,-0.00038909912109375,0.0140018463134766,0,
00:00:02.244,-0.000102996826171875,-0.00038909912109375,0.0140018463134766,0,
00:00:02.248,-0.000102996826171875,-0.000383377075195313,0.0140132904052734,0,
00:00:02.252,-0.000120162963867188,-0.00038909912109375,0.014007568359375,0,
00:00:02.256,-0.000108718872070313,-0.000377655029296875,0.0140018463134766,0,
00:00:02.26,-8.58306884765625E-05,-0.000371932983398438,0.0139961242675781,0,
00:00:02.264,-9.72747802734375E-05,-0.00038909912109375,0.0139961242675781,0,
00:00:02.268,-9.72747802734375E-05,-0.000383377075195313,0.0139961242675781,0,
00:00:02.272,-9.1552734375E-05,-0.000377655029296875,0.0139961242675781,0,
00:00:02.276,-9.72747802734375E-05,-0.000383377075195313,0.0139904022216797,0,
00:00:02.28,-0.000120162963867188,-0.000417709350585938,0.0139904022216797,0,
00:00:02.284,-0.000125885009765625,-0.000406265258789063,0.0140018463134766,0,
00:00:02.288,-8.58306884765625E-05,-0.000349044799804688,0.0139961242675781,0,
00:00:02.292,-9.72747802734375E-05,-0.000360488891601563,0.0139904022216797,0,
00:00:02.296,-0.000102996826171875,-0.000371932983398438,0.0139904022216797,0,
00:00:02.3,-0.000102996826171875,-0.000371932983398438,0.0139904022216797,0,
00:00:02.304,-0.000108718872070313,-0.000377655029296875,0.0139904022216797,0,
00:00:02.308,-0.000102996826171875,-0.0003662109375,0.0139904022216797,0,
00:00:02.312,-0.000102996826171875,-0.000371932983398438,0.0139904022216797,0,
00:00:02.316,-0.00011444091796875,-0.000377655029296875,0.0139846801757813,0,
00:00:02.32,-0.000120162963867188,-0.000383377075195313,0.0139846801757813,0,
00:00:02.324,-0.00011444091796875,-0.000383377075195313,0.0139846801757813,0,
00:00:02.328,-0.000108718872070313,-0.000377655029296875,0.0139904022216797,0,
00:00:02.332,-0.000120162963867188,-0.00038909912109375,0.0139846801757813,0,
00:00:02.336,-0.000120162963867188,-0.000400543212890625,0.0139846801757813,0,
00:00:02.34,-0.00011444091796875,-0.0003662109375,0.0139789581298828,0,
00:00:02.344,-9.72747802734375E-05,-0.000354766845703125,0.0139846801757813,0,
00:00:02.348,-9.1552734375E-05,-0.000354766845703125,0.0139846801757813,0,
00:00:02.352,-0.000102996826171875,-0.00034332275390625,0.0139846801757813,0,
00:00:02.356,-0.000108718872070313,-0.000360488891601563,0.0139789581298828,0,
00:00:02.36,-0.000102996826171875,-0.000371932983398438,0.0139789581298828,0,
00:00:02.364,-0.000108718872070313,-0.000383377075195313,0.0139789581298828,0,
00:00:02.368,-0.00011444091796875,-0.000377655029296875,0.0139789581298828,0,
00:00:02.372,-0.00011444091796875,-0.0003662109375,0.0139789581298828,0,
00:00:02.376,-0.000108718872070313,-0.000360488891601563,0.0139789581298828,0,
00:00:02.38,-0.000131607055664063,-0.000383377075195313,0.0139789581298828,0,
00:00:02.384,-9.72747802734375E-05,-0.00038909912109375,0.0139789581298828,0,
00:00:02.388,-0.000108718872070313,-0.000383377075195313,0.0139732360839844,0,
00:00:02.392,-0.000108718872070313,-0.000354766845703125,0.0139675140380859,0,
00:00:02.396,-9.72747802734375E-05,-0.000331878662109375,0.0139675140380859,0,
00:00:02.4,-0.00011444091796875,-0.00034332275390625,0.0139675140380859,0,
00:00:02.404,-0.000120162963867188,-0.000360488891601563,0.0139675140380859,0,
00:00:02.408,-0.000108718872070313,-0.000371932983398438,0.0139732360839844,0,
00:00:02.412,-0.000120162963867188,-0.000377655029296875,0.0139789581298828,0,
00:00:02.416,-0.000125885009765625,-0.000383377075195313,0.0139732360839844,0,
00:00:02.42,-0.000108718872070313,-0.000354766845703125,0.0139617919921875,0,
00:00:02.424,-0.000108718872070313,-0.000349044799804688,0.0139617919921875,0,
00:00:02.428,-0.000108718872070313,-0.000354766845703125,0.0139617919921875,0,
00:00:02.432,-0.00011444091796875,-0.000360488891601563,0.0139675140380859,0,
00:00:02.436,-0.000102996826171875,-0.000337600708007813,0.0139617919921875,0,
00:00:02.44,-0.000102996826171875,-0.000331878662109375,0.0139617919921875,0,
00:00:02.444,-0.000120162963867188,-0.000354766845703125,0.0139617919921875,0,
00:00:02.448,-0.00011444091796875,-0.0003662109375,0.0139617919921875,0,
00:00:02.452,-0.000120162963867188,-0.000354766845703125,0.0139675140380859,0,
00:00:02.456,-0.00011444091796875,-0.000331878662109375,0.0139617919921875,0,
00:00:02.46,-0.000108718872070313,-0.000337600708007813,0.0139617919921875,0,
00:00:02.464,-0.00011444091796875,-0.00034332275390625,0.0139617919921875,0,
00:00:02.468,-0.000120162963867188,-0.000354766845703125,0.0139617919921875,0,
00:00:02.472,-0.000131607055664063,-0.000360488891601563,0.0139617919921875,0,
00:00:02.476,-0.000108718872070313,-0.000354766845703125,0.0139560699462891,0,
00:00:02.48,-0.000108718872070313,-0.00034332275390625,0.0139560699462891,0,
00:00:02.484,-0.00011444091796875,-0.000331878662109375,0.0139617919921875,0,
00:00:02.488,-0.000131607055664063,-0.00034332275390625,0.0139732360839844,0,
00:00:02.492,-0.000125885009765625,-0.000371932983398438,0.0139617919921875,0,
00:00:02.496,-0.000120162963867188,-0.000360488891601563,0.0139560699462891,0,
00:00:02.5,-0.000102996826171875,-0.0003204345703125,0.0139503479003906,0,
00:00:02.504,-0.000102996826171875,-0.000314712524414063,0.0139560699462891,0,
00:00:02.508,-0.000120162963867188,-0.000331878662109375,0.0139560699462891,0,
00:00:02.512,-0.000120162963867188,-0.00034332275390625,0.0139560699462891,0,
00:00:02.516,-0.000125885009765625,-0.000360488891601563,0.0139503479003906,0,
00:00:02.52,-0.0001373291015625,-0.000360488891601563,0.0139560699462891,0,
00:00:02.524,-0.000131607055664063,-0.000349044799804688,0.0139560699462891,0,
00:00:02.528,-0.000120162963867188,-0.000331878662109375,0.0139560699462891,0,
00:00:02.532,-0.000102996826171875,-0.000326156616210938,0.0139560699462891,0,
00:00:02.536,-0.00011444091796875,-0.000337600708007813,0.0139560699462891,0,
00:00:02.54,-0.00011444091796875,-0.000331878662109375,0.0139560699462891,0,
00:00:02.544,-0.000120162963867188,-0.000331878662109375,0.0139503479003906,0,
00:00:02.548,-0.000125885009765625,-0.000326156616210938,0.0139560699462891,0,
00:00:02.552,-0.000120162963867188,-0.000326156616210938,0.0139560699462891,0,
00:00:02.556,-0.000108718872070313,-0.000326156616210938,0.0139560699462891,0,
00:00:02.56,-0.000125885009765625,-0.00034332275390625,0.0139503479003906,0,
00:00:02.564,-0.0001373291015625,-0.000354766845703125,0.0139503479003906,0,
00:00:02.568,-0.000125885009765625,-0.000349044799804688,0.0139560699462891,0,
00:00:02.572,-0.00011444091796875,-0.000331878662109375,0.0139503479003906,0,
00:00:02.576,-0.000120162963867188,-0.0003204345703125,0.0139446258544922,0,
00:00:02.58,-0.000131607055664063,-0.0003204345703125,0.0139446258544922,0,
00:00:02.584,-0.00011444091796875,-0.0003204345703125,0.0139503479003906,0,
00:00:02.588,-0.000120162963867188,-0.0003204345703125,0.0139503479003906,0,
00:00:02.592,-0.000131607055664063,-0.000326156616210938,0.0139560699462891,0,
00:00:02.596,-0.000125885009765625,-0.000331878662109375,0.0139446258544922,0,
00:00:02.6,-0.00011444091796875,-0.000331878662109375,0.0139446258544922,0,
00:00:02.604,-0.00011444091796875,-0.0003204345703125,0.0139503479003906,0,
00:00:02.608,-0.000120162963867188,-0.0003204345703125,0.0139503479003906,0,
00:00:02.612,-0.0001373291015625,-0.000349044799804688,0.0139503479003906,0,
00:00:02.616,-0.000148773193359375,-0.00034332275390625,0.0139446258544922,0,
00:00:02.62,-0.000120162963867188,-0.000308990478515625,0.0139446258544922,0,
00:00:02.624,-0.000125885009765625,-0.000308990478515625,0.0139446258544922,0,
00:00:02.628,-0.0001373291015625,-0.000326156616210938,0.0139503479003906,0,
00:00:02.632,-0.0001373291015625,-0.000331878662109375,0.0139446258544922,0,
00:00:02.636,-0.000108718872070313,-0.0003204345703125,0.0139446258544922,0,
00:00:02.64,-0.000108718872070313,-0.000314712524414063,0.0139446258544922,0,
00:00:02.644,-0.000120162963867188,-0.000314712524414063,0.0139446258544922,0,
00:00:02.648,-0.000131607055664063,-0.000314712524414063,0.0139446258544922,0,
00:00:02.652,-0.000125885009765625,-0.0003204345703125,0.0139446258544922,0,
00:00:02.656,-0.000131607055664063,-0.0003204345703125,0.0139446258544922,0,
00:00:02.66,-0.000131607055664063,-0.000308990478515625,0.0139389038085938,0,
00:00:02.664,-0.000125885009765625,-0.000314712524414063,0.0139389038085938,0,
00:00:02.668,-0.000125885009765625,-0.000314712524414063,0.0139446258544922,0,
00:00:02.672,-0.000120162963867188,-0.000303268432617188,0.0139446258544922,0,
00:00:02.676,-0.000125885009765625,-0.000303268432617188,0.0139446258544922,0,
00:00:02.68,-0.000131607055664063,-0.0003204345703125,0.0139446258544922,0,
00:00:02.684,-0.0001373291015625,-0.000326156616210938,0.0139389038085938,0,
00:00:02.688,-0.0001373291015625,-0.000308990478515625,0.0139389038085938,0,
00:00:02.692,-0.000125885009765625,-0.000303268432617188,0.0139389038085938,0,
00:00:02.696,-0.000120162963867188,-0.000303268432617188,0.0139389038085938,0,
00:00:02.7,-0.000131607055664063,-0.000303268432617188,0.0139446258544922,0,
00:00:02.704,-0.000154495239257813,-0.0003204345703125,0.0139503479003906,0,
00:00:02.708,-0.000131607055664063,-0.0003204345703125,0.0139274597167969,0,
00:00:02.712,-0.000125885009765625,-0.000291824340820313,0.0139331817626953,0,
00:00:02.716,-0.000131607055664063,-0.000291824340820313,0.0139331817626953,0,
00:00:02.72,-0.000131607055664063,-0.00029754638671875,0.0139331817626953,0,
00:00:02.724,-0.000143051147460938,-0.00029754638671875,0.0139331817626953,0,
00:00:02.728,-0.0001373291015625,-0.000303268432617188,0.0139389038085938,0,
00:00:02.732,-0.000131607055664063,-0.000308990478515625,0.0139331817626953,0,
00:00:02.736,-0.000131607055664063,-0.000308990478515625,0.0139331817626953,0,
00:00:02.74,-0.000131607055664063,-0.00029754638671875,0.0139331817626953,0,
00:00:02.744,-0.0001373291015625,-0.000291824340820313,0.0139331817626953,0,
00:00:02.748,-0.000143051147460938,-0.00029754638671875,0.0139331817626953,0,
00:00:02.752,-0.000131607055664063,-0.00029754638671875,0.0139331817626953,0,
00:00:02.756,-0.000125885009765625,-0.000291824340820313,0.0139274597167969,0,
00:00:02.76,-0.000131607055664063,-0.000286102294921875,0.0139274597167969,0,
00:00:02.764,-0.0001373291015625,-0.000291824340820313,0.0139274597167969,0,
00:00:02.768,-0.0001373291015625,-0.00029754638671875,0.0139274597167969,0,
00:00:02.772,-0.000143051147460938,-0.000308990478515625,0.0139274597167969,0,
00:00:02.776,-0.000154495239257813,-0.000314712524414063,0.0139217376708984,0,
00:00:02.78,-0.000148773193359375,-0.000308990478515625,0.0139217376708984,0,
00:00:02.784,-0.000143051147460938,-0.000280380249023438,0.0139274597167969,0,
00:00:02.788,-0.000154495239257813,-0.000274658203125,0.0139331817626953,0,
00:00:02.792,-0.000125885009765625,-0.000274658203125,0.0139274597167969,0,
00:00:02.796,-0.000125885009765625,-0.000280380249023438,0.0139217376708984,0,
00:00:02.8,-0.0001373291015625,-0.000291824340820313,0.0139274597167969,0,
00:00:02.804,-0.000148773193359375,-0.000303268432617188,0.0139331817626953,0,
00:00:02.808,-0.00016021728515625,-0.00029754638671875,0.0139274597167969,0,
00:00:02.812,-0.000143051147460938,-0.000291824340820313,0.0139331817626953,0,
00:00:02.816,-0.000143051147460938,-0.000286102294921875,0.013916015625,0,
00:00:02.82,-0.000143051147460938,-0.000291824340820313,0.013916015625,0,
00:00:02.824,-0.000154495239257813,-0.00029754638671875,0.0139274597167969,0,
00:00:02.828,-0.000143051147460938,-0.000274658203125,0.0139217376708984,0,
00:00:02.832,-0.000131607055664063,-0.00025177001953125,0.013916015625,0,
00:00:02.836,-0.000125885009765625,-0.000263214111328125,0.013916015625,0,
00:00:02.84,-0.0001373291015625,-0.000274658203125,0.0139217376708984,0,
00:00:02.844,-0.0001373291015625,-0.000274658203125,0.013916015625,0,
00:00:02.848,-0.000148773193359375,-0.000286102294921875,0.0139217376708984,0,
00:00:02.852,-0.000148773193359375,-0.000274658203125,0.0139217376708984,0,
00:00:02.856,-0.0001373291015625,-0.000268936157226563,0.0139217376708984,0,
00:00:02.86,-0.000148773193359375,-0.000280380249023438,0.0139217376708984,0,
00:00:02.864,-0.000165939331054688,-0.000308990478515625,0.0139217376708984,0,
00:00:02.868,-0.00016021728515625,-0.000308990478515625,0.0139217376708984,0,
00:00:02.872,-0.000148773193359375,-0.000280380249023438,0.0139217376708984,0,
00:00:02.876,-0.000143051147460938,-0.000257492065429688,0.0139217376708984,0,
00:00:02.88,-0.0001373291015625,-0.00025177001953125,0.0139217376708984,0,
00:00:02.884,-0.000154495239257813,-0.000274658203125,0.0139217376708984,0,
00:00:02.888,-0.000154495239257813,-0.000291824340820313,0.0139217376708984,0,
00:00:02.892,-0.00016021728515625,-0.00029754638671875,0.0139217376708984,0,
00:00:02.896,-0.000154495239257813,-0.000268936157226563,0.0139217376708984,0,
00:00:02.9,-0.000148773193359375,-0.000240325927734375,0.0139217376708984,0,
00:00:02.904,-0.000154495239257813,-0.000257492065429688,0.0139217376708984,0,
00:00:02.908,-0.000148773193359375,-0.000274658203125,0.0139274597167969,0,
00:00:02.912,-0.000154495239257813,-0.000268936157226563,0.013916015625,0,
00:00:02.916,-0.00016021728515625,-0.000268936157226563,0.013916015625,0,
00:00:02.92,-0.00016021728515625,-0.000268936157226563,0.013916015625,0,
00:00:02.924,-0.00016021728515625,-0.000280380249023438,0.0139217376708984,0,
00:00:02.928,-0.000154495239257813,-0.000274658203125,0.013916015625,0,
00:00:02.932,-0.000154495239257813,-0.00025177001953125,0.0139217376708984,0,
00:00:02.936,-0.000154495239257813,-0.000263214111328125,0.013916015625,0,
00:00:02.94,-0.000154495239257813,-0.000268936157226563,0.013916015625,0,
00:00:02.944,-0.0001373291015625,-0.00025177001953125,0.013916015625,0,
00:00:02.948,-0.0001373291015625,-0.000246047973632813,0.0139217376708984,0,
00:00:02.952,-0.000143051147460938,-0.000246047973632813,0.0139102935791016,0,
00:00:02.956,-0.000154495239257813,-0.000263214111328125,0.0139102935791016,0,
00:00:02.96,-0.000154495239257813,-0.000263214111328125,0.0139102935791016,0,
00:00:02.964,-0.000148773193359375,-0.000246047973632813,0.013916015625,0,
00:00:02.968,-0.000154495239257813,-0.00025177001953125,0.013916015625,0,
00:00:02.972,-0.000165939331054688,-0.000257492065429688,0.013916015625,0,
00:00:02.976,-0.000154495239257813,-0.000257492065429688,0.013916015625,0,
00:00:02.98,-0.000154495239257813,-0.000257492065429688,0.013916015625,0,
00:00:02.984,-0.00016021728515625,-0.000257492065429688,0.013916015625,0,
00:00:02.988,-0.00016021728515625,-0.00025177001953125,0.0139217376708984,0,
00:00:02.992,-0.000143051147460938,-0.000246047973632813,0.013916015625,0,
00:00:02.996,-0.000143051147460938,-0.00025177001953125,0.0139102935791016,0,
00:00:03,-0.000154495239257813,-0.00025177001953125,0.0139102935791016,0,
00:00:03.004,-0.000154495239257813,-0.000257492065429688,0.013916015625,0,
00:00:03.008,-0.00016021728515625,-0.000263214111328125,0.0139217376708984,0,
00:00:03.012,-0.000165939331054688,-0.000257492065429688,0.013916015625,0,
00:00:03.016,-0.000154495239257813,-0.000240325927734375,0.0139102935791016,0,
00:00:03.02,-0.000154495239257813,-0.000246047973632813,0.0139102935791016,0,
00:00:03.024,-0.000165939331054688,-0.000246047973632813,0.0139102935791016,0,
00:00:03.028,-0.000148773193359375,-0.00025177001953125,0.013916015625,0,
00:00:03.032,-0.000154495239257813,-0.000257492065429688,0.0139102935791016,0,
00:00:03.036,-0.00016021728515625,-0.00025177001953125,0.0139102935791016,0,
00:00:03.04,-0.00016021728515625,-0.000240325927734375,0.0139102935791016,0,
00:00:03.044,-0.00016021728515625,-0.000234603881835938,0.013916015625,0,
00:00:03.048,-0.000154495239257813,-0.000234603881835938,0.0139102935791016,0,
00:00:03.052,-0.000154495239257813,-0.0002288818359375,0.0139102935791016,0,
00:00:03.056,-0.000154495239257813,-0.000234603881835938,0.0139045715332031,0,
00:00:03.06,-0.000171661376953125,-0.00025177001953125,0.0139045715332031,0,
00:00:03.064,-0.000165939331054688,-0.000257492065429688,0.0139102935791016,0,
00:00:03.068,-0.00016021728515625,-0.000240325927734375,0.0139102935791016,0,
00:00:03.072,-0.000154495239257813,-0.0002288818359375,0.0139045715332031,0,
00:00:03.076,-0.000154495239257813,-0.000234603881835938,0.0139102935791016,0,
00:00:03.08,-0.000165939331054688,-0.000257492065429688,0.0139045715332031,0,
00:00:03.084,-0.000177383422851563,-0.00025177001953125,0.0139045715332031,0,
00:00:03.088,-0.000177383422851563,-0.0002288818359375,0.0139102935791016,0,
00:00:03.092,-0.000177383422851563,-0.000223159790039063,0.0139102935791016,0,
00:00:03.096,-0.000148773193359375,-0.0002288818359375,0.0139102935791016,0,
00:00:03.1,-0.000154495239257813,-0.000240325927734375,0.0139045715332031,0,
00:00:03.104,-0.000171661376953125,-0.00025177001953125,0.0139045715332031,0,
00:00:03.108,-0.000177383422851563,-0.00025177001953125,0.0139102935791016,0,
00:00:03.112,-0.00016021728515625,-0.0002288818359375,0.0139102935791016,0,
00:00:03.116,-0.000154495239257813,-0.000211715698242188,0.0139045715332031,0,
00:00:03.12,-0.00016021728515625,-0.000223159790039063,0.0139045715332031,0,
00:00:03.124,-0.000165939331054688,-0.000223159790039063,0.0139102935791016,0,
00:00:03.128,-0.00018310546875,-0.0002288818359375,0.0139102935791016,0,
00:00:03.132,-0.000171661376953125,-0.000246047973632813,0.0139045715332031,0,
00:00:03.136,-0.000165939331054688,-0.000240325927734375,0.0139045715332031,0,
00:00:03.14,-0.00016021728515625,-0.000217437744140625,0.0139045715332031,0,
00:00:03.144,-0.00016021728515625,-0.000217437744140625,0.0139045715332031,0,
00:00:03.148,-0.000171661376953125,-0.000234603881835938,0.0139102935791016,0,
00:00:03.152,-0.000177383422851563,-0.00025177001953125,0.0139102935791016,0,
00:00:03.156,-0.000177383422851563,-0.000257492065429688,0.0138988494873047,0,
00:00:03.16,-0.000165939331054688,-0.0002288818359375,0.0139045715332031,0,
00:00:03.164,-0.00016021728515625,-0.00020599365234375,0.0139045715332031,0,
00:00:03.168,-0.000165939331054688,-0.000200271606445313,0.0139102935791016,0,
00:00:03.172,-0.000165939331054688,-0.000211715698242188,0.0139045715332031,0,
00:00:03.176,-0.00016021728515625,-0.0002288818359375,0.0139045715332031,0,
00:00:03.18,-0.000171661376953125,-0.000234603881835938,0.0139045715332031,0,
00:00:03.184,-0.000177383422851563,-0.000234603881835938,0.0139102935791016,0,
00:00:03.188,-0.000177383422851563,-0.0002288818359375,0.0139102935791016,0,
00:00:03.192,-0.000171661376953125,-0.0002288818359375,0.0139045715332031,0,
00:00:03.196,-0.000171661376953125,-0.000234603881835938,0.0139045715332031,0,
00:00:03.2,-0.00018310546875,-0.000223159790039063,0.0139045715332031,0,
00:00:03.204,-0.000177383422851563,-0.00020599365234375,0.0139102935791016,0,
00:00:03.208,-0.00016021728515625,-0.000200271606445313,0.0139102935791016,0,
00:00:03.212,-0.000171661376953125,-0.000211715698242188,0.0138988494873047,0,
00:00:03.216,-0.000177383422851563,-0.000217437744140625,0.0138988494873047,0,
00:00:03.22,-0.000171661376953125,-0.0002288818359375,0.0139045715332031,0,
00:00:03.224,-0.00018310546875,-0.000246047973632813,0.0139045715332031,0,
00:00:03.228,-0.000171661376953125,-0.000223159790039063,0.0139045715332031,0,
00:00:03.232,-0.000165939331054688,-0.000188827514648438,0.0139045715332031,0,
00:00:03.236,-0.000171661376953125,-0.000194549560546875,0.0139045715332031,0,
00:00:03.24,-0.00016021728515625,-0.00020599365234375,0.0139045715332031,0,
00:00:03.244,-0.000171661376953125,-0.000211715698242188,0.0139045715332031,0,
00:00:03.248,-0.000171661376953125,-0.000211715698242188,0.0138988494873047,0,
00:00:03.252,-0.000171661376953125,-0.000217437744140625,0.0139045715332031,0,
00:00:03.256,-0.000177383422851563,-0.000234603881835938,0.0139045715332031,0,
00:00:03.26,-0.00018310546875,-0.0002288818359375,0.0138988494873047,0,
00:00:03.264,-0.000171661376953125,-0.000188827514648438,0.0139102935791016,0,
00:00:03.268,-0.000171661376953125,-0.00018310546875,0.0139045715332031,0,
00:00:03.272,-0.000171661376953125,-0.000200271606445313,0.0139045715332031,0,
00:00:03.276,-0.000171661376953125,-0.000200271606445313,0.0139045715332031,0,
00:00:03.28,-0.000171661376953125,-0.00020599365234375,0.0139045715332031,0,
00:00:03.284,-0.00018310546875,-0.000223159790039063,0.0139045715332031,0,
00:00:03.288,-0.000200271606445313,-0.00025177001953125,0.0139045715332031,0,
00:00:03.292,-0.000194549560546875,-0.0002288818359375,0.0139045715332031,0,
00:00:03.296,-0.000171661376953125,-0.000177383422851563,0.0139045715332031,0,
00:00:03.3,-0.000165939331054688,-0.000177383422851563,0.0139045715332031,0,
00:00:03.304,-0.000171661376953125,-0.00018310546875,0.0139045715332031,0,
00:00:03.308,-0.000171661376953125,-0.000188827514648438,0.0139045715332031,0,
00:00:03.312,-0.000177383422851563,-0.000200271606445313,0.0139045715332031,0,
00:00:03.316,-0.000188827514648438,-0.000223159790039063,0.0139045715332031,0,
00:00:03.32,-0.000223159790039063,-0.000223159790039063,0.0139102935791016,0,
00:00:03.324,-0.00018310546875,-0.000194549560546875,0.0139102935791016,0,
00:00:03.328,-0.000154495239257813,-0.000188827514648438,0.0139045715332031,0,
00:00:03.332,-0.000177383422851563,-0.000194549560546875,0.0139045715332031,0,
00:00:03.336,-0.000171661376953125,-0.000188827514648438,0.0138988494873047,0,
00:00:03.34,-0.000171661376953125,-0.000188827514648438,0.0138988494873047,0,
00:00:03.344,-0.000188827514648438,-0.000200271606445313,0.0139045715332031,0,
00:00:03.348,-0.00018310546875,-0.000200271606445313,0.0139045715332031,0,
00:00:03.352,-0.000188827514648438,-0.000211715698242188,0.0139045715332031,0,
00:00:03.356,-0.000200271606445313,-0.000194549560546875,0.0139102935791016,0,
00:00:03.36,-0.000177383422851563,-0.000177383422851563,0.0139045715332031,0,
00:00:03.364,-0.000165939331054688,-0.00018310546875,0.0138931274414063,0,
00:00:03.368,-0.000171661376953125,-0.00018310546875,0.0138988494873047,0,
00:00:03.372,-0.000171661376953125,-0.00018310546875,0.0138988494873047,0,
00:00:03.376,-0.000177383422851563,-0.000188827514648438,0.0138988494873047,0,
00:00:03.38,-0.000188827514648438,-0.00020599365234375,0.0138988494873047,0,
00:00:03.384,-0.00018310546875,-0.00020599365234375,0.0138988494873047,0,
00:00:03.388,-0.000188827514648438,-0.000194549560546875,0.0138988494873047,0,
00:00:03.392,-0.000188827514648438,-0.000188827514648438,0.0138988494873047,0,
00:00:03.396,-0.000177383422851563,-0.000171661376953125,0.0138988494873047,0,
00:00:03.4,-0.00018310546875,-0.000171661376953125,0.0138988494873047,0,
00:00:03.404,-0.000171661376953125,-0.000171661376953125,0.0138988494873047,0,
00:00:03.408,-0.000171661376953125,-0.000171661376953125,0.0138988494873047,0,
00:00:03.412,-0.00018310546875,-0.000177383422851563,0.0138988494873047,0,
00:00:03.416,-0.000194549560546875,-0.00018310546875,0.0139045715332031,0,
00:00:03.42,-0.00018310546875,-0.00018310546875,0.0138988494873047,0,
00:00:03.424,-0.000177383422851563,-0.000194549560546875,0.0138988494873047,0,
00:00:03.428,-0.000177383422851563,-0.000194549560546875,0.0138988494873047,0,
00:00:03.432,-0.00018310546875,-0.000188827514648438,0.0138988494873047,0,
00:00:03.436,-0.00018310546875,-0.000171661376953125,0.0138931274414063,0,
00:00:03.44,-0.00018310546875,-0.000165939331054688,0.0138931274414063,0,
00:00:03.444,-0.000188827514648438,-0.000171661376953125,0.0138988494873047,0,
00:00:03.448,-0.000188827514648438,-0.000171661376953125,0.0138988494873047,0,
00:00:03.452,-0.000177383422851563,-0.00018310546875,0.0138988494873047,0,
00:00:03.456,-0.000177383422851563,-0.000194549560546875,0.0138931274414063,0,
00:00:03.46,-0.00018310546875,-0.000188827514648438,0.0138931274414063,0,
00:00:03.464,-0.000177383422851563,-0.000165939331054688,0.0138988494873047,0,
00:00:03.468,-0.00018310546875,-0.000177383422851563,0.0138988494873047,0,
00:00:03.472,-0.000188827514648438,-0.000177383422851563,0.0138988494873047,0,
00:00:03.476,-0.000177383422851563,-0.000154495239257813,0.0138988494873047,0,
00:00:03.48,-0.000171661376953125,-0.00016021728515625,0.0138988494873047,0,
00:00:03.484,-0.000177383422851563,-0.000171661376953125,0.0138931274414063,0,
00:00:03.488,-0.000188827514648438,-0.00018310546875,0.0138988494873047,0,
00:00:03.492,-0.000188827514648438,-0.00018310546875,0.0138931274414063,0,
00:00:03.496,-0.000177383422851563,-0.000165939331054688,0.0138931274414063,0,
00:00:03.5,-0.00018310546875,-0.000154495239257813,0.0138931274414063,0,
00:00:03.504,-0.000188827514648438,-0.000171661376953125,0.0138931274414063,0,
00:00:03.508,-0.000194549560546875,-0.000165939331054688,0.0138988494873047,0,
00:00:03.512,-0.000171661376953125,-0.000154495239257813,0.0138931274414063,0,
00:00:03.516,-0.000177383422851563,-0.00016021728515625,0.0138931274414063,0,
00:00:03.52,-0.00018310546875,-0.00016021728515625,0.0138874053955078,0,
00:00:03.524,-0.000188827514648438,-0.000171661376953125,0.0138931274414063,0,
00:00:03.528,-0.000188827514648438,-0.000171661376953125,0.0138931274414063,0,
00:00:03.532,-0.000188827514648438,-0.000165939331054688,0.0138988494873047,0,
00:00:03.536,-0.000194549560546875,-0.000165939331054688,0.0138931274414063,0,
00:00:03.54,-0.00018310546875,-0.00016021728515625,0.0138874053955078,0,
00:00:03.544,-0.00018310546875,-0.00016021728515625,0.0138988494873047,0,
00:00:03.548,-0.00018310546875,-0.000165939331054688,0.0138988494873047,0,
00:00:03.552,-0.000200271606445313,-0.00018310546875,0.0138931274414063,0,
00:00:03.556,-0.00020599365234375,-0.000177383422851563,0.0138874053955078,0,
00:00:03.56,-0.000171661376953125,-0.000148773193359375,0.0138874053955078,0,
00:00:03.564,-0.000177383422851563,-0.000125885009765625,0.0138874053955078,0,
00:00:03.568,-0.000188827514648438,-0.000143051147460938,0.0138931274414063,0,
00:00:03.572,-0.00018310546875,-0.000154495239257813,0.0138931274414063,0,
00:00:03.576,-0.000188827514648438,-0.000148773193359375,0.0138931274414063,0,
00:00:03.58,-0.00018310546875,-0.000148773193359375,0.0138931274414063,0,
00:00:03.584,-0.00018310546875,-0.000154495239257813,0.0138988494873047,0,
00:00:03.588,-0.00018310546875,-0.000148773193359375,0.0138931274414063,0,
00:00:03.592,-0.000188827514648438,-0.00016021728515625,0.0138931274414063,0,
00:00:03.596,-0.000194549560546875,-0.000171661376953125,0.0138931274414063,0,
00:00:03.6,-0.000200271606445313,-0.000165939331054688,0.0138874053955078,0,
00:00:03.604,-0.000200271606445313,-0.000154495239257813,0.0138931274414063,0,
00:00:03.608,-0.000200271606445313,-0.000143051147460938,0.0138931274414063,0,
00:00:03.612,-0.000177383422851563,-0.000148773193359375,0.0138988494873047,0,
00:00:03.616,-0.00018310546875,-0.000154495239257813,0.0138874053955078,0,
00:00:03.62,-0.000188827514648438,-0.000154495239257813,0.0138874053955078,0,
00:00:03.624,-0.000188827514648438,-0.00016021728515625,0.0138931274414063,0,
00:00:03.628,-0.000188827514648438,-0.0001373291015625,0.0138931274414063,0,
00:00:03.632,-0.000177383422851563,-0.000125885009765625,0.0138931274414063,0,
00:00:03.636,-0.000200271606445313,-0.0001373291015625,0.0138931274414063,0,
00:00:03.64,-0.000194549560546875,-0.000143051147460938,0.0138931274414063,0,
00:00:03.644,-0.00018310546875,-0.000148773193359375,0.0138874053955078,0,
00:00:03.648,-0.000188827514648438,-0.000143051147460938,0.0138931274414063,0,
00:00:03.652,-0.000188827514648438,-0.000148773193359375,0.0138874053955078,0,
00:00:03.656,-0.000188827514648438,-0.000148773193359375,0.0138874053955078,0,
00:00:03.66,-0.000200271606445313,-0.000148773193359375,0.0138874053955078,0,
00:00:03.664,-0.000188827514648438,-0.000143051147460938,0.0138931274414063,0,
00:00:03.668,-0.000188827514648438,-0.000148773193359375,0.0138874053955078,0,
00:00:03.672,-0.000188827514648438,-0.000143051147460938,0.0138874053955078,0,
00:00:03.676,-0.00018310546875,-0.000131607055664063,0.0138874053955078,0,
00:00:03.68,-0.000188827514648438,-0.000131607055664063,0.0138874053955078,0,
00:00:03.684,-0.000200271606445313,-0.000143051147460938,0.0138874053955078,0,
00:00:03.688,-0.000188827514648438,-0.000143051147460938,0.0138931274414063,0,
00:00:03.692,-0.000194549560546875,-0.000143051147460938,0.0138874053955078,0,
00:00:03.696,-0.000188827514648438,-0.0001373291015625,0.0138874053955078,0,
00:00:03.7,-0.000188827514648438,-0.000131607055664063,0.0138874053955078,0,
00:00:03.704,-0.000194549560546875,-0.0001373291015625,0.0138931274414063,0,
00:00:03.708,-0.000194549560546875,-0.0001373291015625,0.0138931274414063,0,
00:00:03.712,-0.000194549560546875,-0.000131607055664063,0.0138931274414063,0,
00:00:03.716,-0.000200271606445313,-0.0001373291015625,0.0138874053955078,0,
00:00:03.72,-0.000194549560546875,-0.000143051147460938,0.0138874053955078,0,
00:00:03.724,-0.000194549560546875,-0.000131607055664063,0.0138874053955078,0,
00:00:03.728,-0.000194549560546875,-0.000125885009765625,0.0138874053955078,0,
00:00:03.732,-0.00020599365234375,-0.000143051147460938,0.0138874053955078,0,
00:00:03.736,-0.000217437744140625,-0.000143051147460938,0.0138874053955078,0,
00:00:03.74,-0.000177383422851563,-0.000125885009765625,0.0138874053955078,0,
00:00:03.744,-0.000194549560546875,-0.0001373291015625,0.0138874053955078,0,
00:00:03.748,-0.000217437744140625,-0.0001373291015625,0.0138874053955078,0,
00:00:03.752,-0.00018310546875,-0.000120162963867188,0.0138874053955078,0,
00:00:03.756,-0.000211715698242188,-0.000125885009765625,0.0138874053955078,0,
00:00:03.76,-0.000200271606445313,-0.000131607055664063,0.0138816833496094,0,
00:00:03.764,-0.00018310546875,-0.000120162963867188,0.0138874053955078,0,
00:00:03.768,-0.000188827514648438,-0.000125885009765625,0.0138874053955078,0,
00:00:03.772,-0.000194549560546875,-0.0001373291015625,0.0138874053955078,0,
00:00:03.776,-0.000200271606445313,-0.0001373291015625,0.0138874053955078,0,
00:00:03.78,-0.000200271606445313,-0.000131607055664063,0.0138816833496094,0,
00:00:03.784,-0.00020599365234375,-0.0001373291015625,0.0138874053955078,0,
00:00:03.788,-0.000200271606445313,-0.000125885009765625,0.0138874053955078,0,
00:00:03.792,-0.000188827514648438,-0.000102996826171875,0.0138874053955078,0,
00:00:03.796,-0.000188827514648438,-0.000108718872070313,0.0138874053955078,0,
00:00:03.8,-0.000194549560546875,-0.00011444091796875,0.0138874053955078,0,
00:00:03.804,-0.000200271606445313,-0.000125885009765625,0.0138931274414063,0,
00:00:03.808,-0.000200271606445313,-0.000131607055664063,0.0138931274414063,0,
00:00:03.812,-0.000200271606445313,-0.000120162963867188,0.0138874053955078,0,
00:00:03.816,-0.000200271606445313,-0.000120162963867188,0.0138874053955078,0,
00:00:03.82,-0.000200271606445313,-0.000120162963867188,0.0138874053955078,0,
00:00:03.824,-0.00020599365234375,-0.000125885009765625,0.0138874053955078,0,
00:00:03.828,-0.000200271606445313,-0.000131607055664063,0.0138874053955078,0,
00:00:03.832,-0.000200271606445313,-0.000125885009765625,0.0138874053955078,0,
00:00:03.836,-0.000200271606445313,-0.000120162963867188,0.0138874053955078,0,
00:00:03.84,-0.000200271606445313,-0.00011444091796875,0.0138874053955078,0,
00:00:03.844,-0.000194549560546875,-0.000108718872070313,0.0138874053955078,0,
00:00:03.848,-0.000200271606445313,-0.00011444091796875,0.0138874053955078,0,
00:00:03.852,-0.00020599365234375,-0.000131607055664063,0.0138874053955078,0,
00:00:03.856,-0.00020599365234375,-0.0001373291015625,0.0138874053955078,0,
00:00:03.86,-0.00020599365234375,-0.000143051147460938,0.0138874053955078,0,
00:00:03.864,-0.00020599365234375,-0.000143051147460938,0.0138874053955078,0,
00:00:03.868,-0.000200271606445313,-0.000120162963867188,0.0138874053955078,0,
00:00:03.872,-0.00020599365234375,-0.000108718872070313,0.0138874053955078,0,
00:00:03.876,-0.000200271606445313,-0.00011444091796875,0.0138816833496094,0,
00:00:03.88,-0.000200271606445313,-0.00011444091796875,0.0138816833496094,0,
00:00:03.884,-0.000200271606445313,-0.000102996826171875,0.0138816833496094,0,
00:00:03.888,-0.000200271606445313,-0.000108718872070313,0.0138874053955078,0,
00:00:03.892,-0.000194549560546875,-0.000108718872070313,0.0138874053955078,0,
00:00:03.896,-0.000194549560546875,-0.000120162963867188,0.0138874053955078,0,
00:00:03.9,-0.000200271606445313,-0.000120162963867188,0.0138759613037109,0,
00:00:03.904,-0.00020599365234375,-0.00011444091796875,0.0138816833496094,0,
00:00:03.908,-0.00020599365234375,-0.000102996826171875,0.0138931274414063,0,
00:00:03.912,-0.000217437744140625,-0.000102996826171875,0.0138816833496094,0,
00:00:03.916,-0.000217437744140625,-0.00011444091796875,0.0138702392578125,0,
00:00:03.92,-0.000200271606445313,-0.00011444091796875,0.0138759613037109,0,
00:00:03.924,-0.000200271606445313,-0.00011444091796875,0.0138816833496094,0,
00:00:03.928,-0.000188827514648438,-0.000102996826171875,0.0138874053955078,0,
00:00:03.932,-0.000194549560546875,-0.000102996826171875,0.0138759613037109,0,
00:00:03.936,-0.000200271606445313,-0.000102996826171875,0.0138816833496094,0,
00:00:03.94,-0.000211715698242188,-0.000108718872070313,0.0138816833496094,0,
00:00:03.944,-0.000200271606445313,-0.000102996826171875,0.0138816833496094,0,
00:00:03.948,-0.000211715698242188,-0.000120162963867188,0.0138874053955078,0,
00:00:03.952,-0.000217437744140625,-0.0001373291015625,0.0138816833496094,0,
00:00:03.956,-0.00020599365234375,-0.00011444091796875,0.0138816833496094,0,
00:00:03.96,-0.000200271606445313,-8.58306884765625E-05,0.0138816833496094,0,
00:00:03.964,-0.000200271606445313,-8.58306884765625E-05,0.0138816833496094,0,
00:00:03.968,-0.00020599365234375,-9.72747802734375E-05,0.0138816833496094,0,
00:00:03.972,-0.00020599365234375,-0.000102996826171875,0.0138816833496094,0,
00:00:03.976,-0.000211715698242188,-0.00011444091796875,0.0138759613037109,0,
00:00:03.98,-0.000217437744140625,-0.000102996826171875,0.0138816833496094,0,
00:00:03.984,-0.000211715698242188,-8.58306884765625E-05,0.0138816833496094,0,
00:00:03.988,-0.00020599365234375,-8.58306884765625E-05,0.0138816833496094,0,
00:00:03.992,-0.000211715698242188,-9.72747802734375E-05,0.0138816833496094,0,
00:00:03.996,-0.00020599365234375,-0.00011444091796875,0.0138759613037109,0,
00:00:04,-0.000211715698242188,-0.00011444091796875,0.0138816833496094,0,
00:00:04.004,-0.000217437744140625,-9.72747802734375E-05,0.0138874053955078,0,
00:00:04.008,-0.000217437744140625,-8.58306884765625E-05,0.0138759613037109,0,
00:00:04.012,-0.000194549560546875,-9.1552734375E-05,0.0138702392578125,0,
00:00:04.016,-0.000223159790039063,-9.72747802734375E-05,0.0138759613037109,0,
00:00:04.02,-0.000217437744140625,-0.000102996826171875,0.0138759613037109,0,
00:00:04.024,-0.000200271606445313,-0.000102996826171875,0.0138816833496094,0,
00:00:04.028,-0.00020599365234375,-9.72747802734375E-05,0.0138874053955078,0,
00:00:04.032,-0.000200271606445313,-8.58306884765625E-05,0.0138759613037109,0,
00:00:04.036,-0.000211715698242188,-8.58306884765625E-05,0.0138759613037109,0,
00:00:04.04,-0.000211715698242188,-9.1552734375E-05,0.0138759613037109,0,
00:00:04.044,-0.000200271606445313,-0.000102996826171875,0.0138759613037109,0,
00:00:04.048,-0.000211715698242188,-0.000108718872070313,0.0138759613037109,0,
00:00:04.052,-0.000211715698242188,-0.000102996826171875,0.0138759613037109,0,
00:00:04.056,-0.000200271606445313,-7.43865966796875E-05,0.0138759613037109,0,
00:00:04.06,-0.00020599365234375,-8.0108642578125E-05,0.0138759613037109,0,
00:00:04.064,-0.000211715698242188,-8.0108642578125E-05,0.0138816833496094,0,
00:00:04.068,-0.000211715698242188,-8.0108642578125E-05,0.0138816833496094,0,
00:00:04.072,-0.000211715698242188,-9.1552734375E-05,0.0138759613037109,0,
00:00:04.076,-0.000211715698242188,-9.1552734375E-05,0.0138702392578125,0,
00:00:04.08,-0.000211715698242188,-9.1552734375E-05,0.0138759613037109,0,
00:00:04.084,-0.000211715698242188,-8.58306884765625E-05,0.0138759613037109,0,
00:00:04.088,-0.000211715698242188,-7.43865966796875E-05,0.0138816833496094,0,
00:00:04.092,-0.000217437744140625,-9.1552734375E-05,0.0138759613037109,0,
00:00:04.096,-0.000211715698242188,-9.72747802734375E-05,0.0138759613037109,0,
00:00:04.1,-0.00020599365234375,-8.58306884765625E-05,0.0138759613037109,0,
00:00:04.104,-0.000217437744140625,-8.0108642578125E-05,0.0138816833496094,0,
00:00:04.108,-0.000217437744140625,-7.43865966796875E-05,0.0138816833496094,0,
00:00:04.112,-0.00020599365234375,-7.43865966796875E-05,0.0138759613037109,0,
00:00:04.116,-0.000211715698242188,-9.1552734375E-05,0.0138702392578125,0,
00:00:04.12,-0.0002288818359375,-0.000108718872070313,0.0138759613037109,0,
00:00:04.124,-0.000217437744140625,-0.000102996826171875,0.0138816833496094,0,
00:00:04.128,-0.000217437744140625,-9.1552734375E-05,0.0138759613037109,0,
00:00:04.132,-0.000211715698242188,-6.29425048828125E-05,0.0138702392578125,0,
00:00:04.136,-0.00020599365234375,-4.57763671875E-05,0.0138702392578125,0,
00:00:04.14,-0.000217437744140625,-6.29425048828125E-05,0.0138759613037109,0,
00:00:04.144,-0.000217437744140625,-6.866455078125E-05,0.0138759613037109,0,
00:00:04.148,-0.00020599365234375,-8.0108642578125E-05,0.0138702392578125,0,
00:00:04.152,-0.000211715698242188,-9.72747802734375E-05,0.0138702392578125,0,
00:00:04.156,-0.000223159790039063,-0.000102996826171875,0.0138702392578125,0,
00:00:04.16,-0.000217437744140625,-6.866455078125E-05,0.0138702392578125,0,
00:00:04.164,-0.000200271606445313,-4.00543212890625E-05,0.0138702392578125,0,
00:00:04.168,-0.00020599365234375,-6.29425048828125E-05,0.0138702392578125,0,
00:00:04.172,-0.000217437744140625,-6.866455078125E-05,0.0138702392578125,0,
00:00:04.176,-0.000223159790039063,-6.866455078125E-05,0.0138702392578125,0,
00:00:04.18,-0.000211715698242188,-6.29425048828125E-05,0.0138702392578125,0,
00:00:04.184,-0.000211715698242188,-7.43865966796875E-05,0.0138702392578125,0,
00:00:04.188,-0.000223159790039063,-9.72747802734375E-05,0.0138759613037109,0,
00:00:04.192,-0.000223159790039063,-8.58306884765625E-05,0.0138702392578125,0,
00:00:04.196,-0.00020599365234375,-4.57763671875E-05,0.0138702392578125,0,
00:00:04.2,-0.000211715698242188,-4.57763671875E-05,0.0138702392578125,0,
00:00:04.204,-0.000211715698242188,-5.14984130859375E-05,0.0138702392578125,0,
00:00:04.208,-0.000211715698242188,-6.29425048828125E-05,0.0138702392578125,0,
00:00:04.212,-0.000223159790039063,-8.58306884765625E-05,0.0138702392578125,0,
00:00:04.216,-0.000240325927734375,-9.72747802734375E-05,0.0138702392578125,0,
00:00:04.22,-0.000246047973632813,-6.29425048828125E-05,0.0138702392578125,0,
00:00:04.224,-0.000188827514648438,-2.86102294921875E-05,0.0138702392578125,0,
00:00:04.228,-0.000211715698242188,-4.00543212890625E-05,0.0138816833496094,0,
00:00:04.232,-0.000211715698242188,-5.7220458984375E-05,0.0138702392578125,0,
00:00:04.236,-0.000211715698242188,-7.43865966796875E-05,0.0138645172119141,0,
00:00:04.24,-0.000234603881835938,-8.0108642578125E-05,0.0138645172119141,0,
00:00:04.244,-0.000217437744140625,-7.43865966796875E-05,0.0138645172119141,0,
00:00:04.248,-0.000217437744140625,-6.29425048828125E-05,0.0138702392578125,0,
00:00:04.252,-0.00020599365234375,-4.00543212890625E-05,0.0138702392578125,0,
00:00:04.256,-0.000211715698242188,-3.4332275390625E-05,0.0138702392578125,0,
00:00:04.26,-0.000223159790039063,-4.57763671875E-05,0.0138645172119141,0,
00:00:04.264,-0.000211715698242188,-6.29425048828125E-05,0.0138645172119141,0,
00:00:04.268,-0.000223159790039063,-6.866455078125E-05,0.0138645172119141,0,
00:00:04.272,-0.000223159790039063,-6.29425048828125E-05,0.0138645172119141,0,
00:00:04.276,-0.000217437744140625,-5.14984130859375E-05,0.0138645172119141,0,
00:00:04.28,-0.000217437744140625,-5.14984130859375E-05,0.0138645172119141,0,
00:00:04.284,-0.000217437744140625,-6.29425048828125E-05,0.0138702392578125,0,
00:00:04.288,-0.000223159790039063,-6.866455078125E-05,0.0138702392578125,0,
00:00:04.292,-0.000223159790039063,-5.7220458984375E-05,0.0138645172119141,0,
00:00:04.296,-0.000217437744140625,-5.7220458984375E-05,0.0138645172119141,0,
00:00:04.3,-0.000223159790039063,-5.7220458984375E-05,0.0138645172119141,0,
00:00:04.304,-0.000217437744140625,-3.4332275390625E-05,0.0138702392578125,0,
00:00:04.308,-0.000217437744140625,-4.00543212890625E-05,0.0138702392578125,0,
00:00:04.312,-0.000223159790039063,-4.57763671875E-05,0.0138645172119141,0,
00:00:04.316,-0.000234603881835938,-6.29425048828125E-05,0.0138645172119141,0,
00:00:04.32,-0.000240325927734375,-7.43865966796875E-05,0.0138645172119141,0,
00:00:04.324,-0.0002288818359375,-5.14984130859375E-05,0.0138702392578125,0,
00:00:04.328,-0.000217437744140625,-2.86102294921875E-05,0.0138702392578125,0,
00:00:04.332,-0.0002288818359375,-3.4332275390625E-05,0.0138645172119141,0,
00:00:04.336,-0.000234603881835938,-4.57763671875E-05,0.0138587951660156,0,
00:00:04.34,-0.000217437744140625,-5.7220458984375E-05,0.0138587951660156,0,
00:00:04.344,-0.0002288818359375,-6.29425048828125E-05,0.0138645172119141,0,
00:00:04.348,-0.000240325927734375,-5.14984130859375E-05,0.0138645172119141,0,
00:00:04.352,-0.000211715698242188,-2.86102294921875E-05,0.0138587951660156,0,
00:00:04.356,-0.000211715698242188,-2.86102294921875E-05,0.0138587951660156,0,
00:00:04.36,-0.000223159790039063,-3.4332275390625E-05,0.0138587951660156,0,
00:00:04.364,-0.0002288818359375,-4.57763671875E-05,0.0138645172119141,0,
00:00:04.368,-0.000234603881835938,-6.866455078125E-05,0.0138645172119141,0,
00:00:04.372,-0.000234603881835938,-6.29425048828125E-05,0.0138587951660156,0,
00:00:04.376,-0.0002288818359375,-4.00543212890625E-05,0.0138587951660156,0,
00:00:04.38,-0.0002288818359375,-4.00543212890625E-05,0.0138587951660156,0,
00:00:04.384,-0.0002288818359375,-5.14984130859375E-05,0.0138587951660156,0,
00:00:04.388,-0.000234603881835938,-5.14984130859375E-05,0.0138645172119141,0,
00:00:04.392,-0.0002288818359375,-4.57763671875E-05,0.0138587951660156,0,
00:00:04.396,-0.0002288818359375,-2.86102294921875E-05,0.0138587951660156,0,
00:00:04.4,-0.0002288818359375,-2.86102294921875E-05,0.0138587951660156,0,
00:00:04.404,-0.000234603881835938,-4.00543212890625E-05,0.0138587951660156,0,
00:00:04.408,-0.000240325927734375,-5.14984130859375E-05,0.0138587951660156,0,
00:00:04.412,-0.000234603881835938,-5.14984130859375E-05,0.0138587951660156,0,
00:00:04.416,-0.000234603881835938,-4.57763671875E-05,0.0138530731201172,0,
00:00:04.42,-0.0002288818359375,-4.57763671875E-05,0.0138530731201172,0,
00:00:04.424,-0.0002288818359375,-2.86102294921875E-05,0.0138530731201172,0,
00:00:04.428,-0.000223159790039063,-2.288818359375E-05,0.0138645172119141,0,
00:00:04.432,-0.0002288818359375,-4.00543212890625E-05,0.0138587951660156,0,
00:00:04.436,-0.0002288818359375,-4.00543212890625E-05,0.0138473510742188,0,
00:00:04.44,-0.0002288818359375,-2.86102294921875E-05,0.0138473510742188,0,
00:00:04.444,-0.0002288818359375,-1.71661376953125E-05,0.0138530731201172,0,
00:00:04.448,-0.0002288818359375,-3.4332275390625E-05,0.0138473510742188,0,
00:00:04.452,-0.0002288818359375,-4.57763671875E-05,0.0138587951660156,0,
00:00:04.456,-0.000234603881835938,-2.86102294921875E-05,0.0138645172119141,0,
00:00:04.46,-0.0002288818359375,-2.288818359375E-05,0.0138587951660156,0,
00:00:04.464,-0.000234603881835938,-3.4332275390625E-05,0.0138587951660156,0,
00:00:04.468,-0.000240325927734375,-4.57763671875E-05,0.0138587951660156,0,
00:00:04.472,-0.000246047973632813,-4.57763671875E-05,0.0138645172119141,0,
00:00:04.476,-0.000257492065429688,-2.288818359375E-05,0.0138645172119141,0,
00:00:04.48,-0.000246047973632813,-2.288818359375E-05,0.0138530731201172,0,
00:00:04.484,-0.000211715698242188,-2.288818359375E-05,0.0138530731201172,0,
00:00:04.488,-0.000217437744140625,-2.288818359375E-05,0.0138587951660156,0,
00:00:04.492,-0.000240325927734375,-4.00543212890625E-05,0.0138530731201172,0,
00:00:04.496,-0.000234603881835938,-4.57763671875E-05,0.0138530731201172,0,
00:00:04.5,-0.000223159790039063,-3.4332275390625E-05,0.0138530731201172,0,
00:00:04.504,-0.0002288818359375,-2.288818359375E-05,0.0138530731201172,0,
00:00:04.508,-0.0002288818359375,-2.288818359375E-05,0.0138530731201172,0,
00:00:04.512,-0.0002288818359375,-2.288818359375E-05,0.0138530731201172,0,
00:00:04.516,-0.0002288818359375,-2.86102294921875E-05,0.0138530731201172,0,
00:00:04.52,-0.0002288818359375,-2.288818359375E-05,0.0138530731201172,0,
00:00:04.524,-0.0002288818359375,-1.71661376953125E-05,0.0138587951660156,0,
00:00:04.528,-0.000240325927734375,-2.86102294921875E-05,0.0138530731201172,0,
00:00:04.532,-0.000246047973632813,-2.288818359375E-05,0.0138530731201172,0,
00:00:04.536,-0.0002288818359375,-1.1444091796875E-05,0.0138530731201172,0,
00:00:04.54,-0.0002288818359375,-1.71661376953125E-05,0.0138530731201172,0,
00:00:04.544,-0.000234603881835938,-2.86102294921875E-05,0.0138530731201172,0,
00:00:04.548,-0.000234603881835938,-2.86102294921875E-05,0.0138530731201172,0,
00:00:04.552,-0.000234603881835938,-2.86102294921875E-05,0.0138530731201172,0,
00:00:04.556,-0.000246047973632813,-2.86102294921875E-05,0.0138530731201172,0,
00:00:04.56,-0.000234603881835938,-1.71661376953125E-05,0.0138587951660156,0,
00:00:04.564,-0.000234603881835938,-1.1444091796875E-05,0.0138530731201172,0,
00:00:04.568,-0.0002288818359375,-1.1444091796875E-05,0.0138587951660156,0,
00:00:04.572,-0.0002288818359375,-1.71661376953125E-05,0.0138530731201172,0,
00:00:04.576,-0.000234603881835938,-2.86102294921875E-05,0.0138473510742188,0,
00:00:04.58,-0.000246047973632813,-2.86102294921875E-05,0.0138530731201172,0,
00:00:04.584,-0.000257492065429688,-1.1444091796875E-05,0.0138587951660156,0,
00:00:04.588,-0.000223159790039063,0,0.0138645172119141,0,
00:00:04.592,-0.000234603881835938,-1.1444091796875E-05,0.0138530731201172,0,
00:00:04.596,-0.000240325927734375,-1.1444091796875E-05,0.0138473510742188,0,
00:00:04.6,-0.000240325927734375,-2.288818359375E-05,0.0138473510742188,0,
00:00:04.604,-0.000234603881835938,-3.4332275390625E-05,0.0138530731201172,0,
00:00:04.608,-0.000240325927734375,-1.71661376953125E-05,0.0138530731201172,0,
00:00:04.612,-0.000240325927734375,-5.7220458984375E-06,0.0138530731201172,0,
00:00:04.616,-0.0002288818359375,-5.7220458984375E-06,0.0138473510742188,0,
00:00:04.62,-0.000234603881835938,-5.7220458984375E-06,0.0138473510742188,0,
00:00:04.624,-0.000234603881835938,-1.1444091796875E-05,0.0138530731201172,0,
00:00:04.628,-0.000234603881835938,-1.71661376953125E-05,0.0138530731201172,0,
00:00:04.632,-0.000240325927734375,-1.71661376953125E-05,0.0138530731201172,0,
00:00:04.636,-0.000234603881835938,-1.71661376953125E-05,0.0138530731201172,0,
00:00:04.64,-0.0002288818359375,-1.1444091796875E-05,0.0138530731201172,0,
00:00:04.644,-0.000234603881835938,-5.7220458984375E-06,0.0138530731201172,0,
00:00:04.648,-0.000234603881835938,-1.1444091796875E-05,0.0138587951660156,0,
00:00:04.652,-0.000246047973632813,-2.288818359375E-05,0.0138530731201172,0,
00:00:04.656,-0.000240325927734375,-2.86102294921875E-05,0.0138530731201172,0,
00:00:04.66,-0.000240325927734375,-2.288818359375E-05,0.0138530731201172,0,
00:00:04.664,-0.0002288818359375,5.7220458984375E-06,0.0138530731201172,0,
00:00:04.668,-0.000234603881835938,0,0.0138530731201172,0,
00:00:04.672,-0.000234603881835938,-1.71661376953125E-05,0.0138530731201172,0,
00:00:04.676,-0.000240325927734375,-2.288818359375E-05,0.0138473510742188,0,
00:00:04.68,-0.000240325927734375,-1.71661376953125E-05,0.0138530731201172,0,
00:00:04.684,-0.0002288818359375,5.7220458984375E-06,0.0138530731201172,0,
00:00:04.688,-0.0002288818359375,1.1444091796875E-05,0.0138530731201172,0,
00:00:04.692,-0.000234603881835938,-5.7220458984375E-06,0.0138530731201172,0,
00:00:04.696,-0.000234603881835938,5.7220458984375E-06,0.0138530731201172,0,
00:00:04.7,-0.000240325927734375,5.7220458984375E-06,0.0138530731201172,0,
00:00:04.704,-0.00025177001953125,-5.7220458984375E-06,0.0138587951660156,0,
00:00:04.708,-0.000223159790039063,5.7220458984375E-06,0.0138416290283203,0,
00:00:04.712,-0.000234603881835938,0,0.0138416290283203,0,
00:00:04.716,-0.000240325927734375,-1.1444091796875E-05,0.0138416290283203,0,
00:00:04.72,-0.00025177001953125,-2.288818359375E-05,0.0138473510742188,0,
00:00:04.724,-0.000246047973632813,-1.71661376953125E-05,0.0138473510742188,0,
00:00:04.728,-0.000223159790039063,1.71661376953125E-05,0.0138473510742188,0,
00:00:04.732,-0.0002288818359375,1.71661376953125E-05,0.0138473510742188,0,
00:00:04.736,-0.000234603881835938,5.7220458984375E-06,0.0138473510742188,0,
00:00:04.74,-0.000246047973632813,-1.1444091796875E-05,0.0138473510742188,0,
00:00:04.744,-0.000240325927734375,-1.71661376953125E-05,0.0138530731201172,0,
00:00:04.748,-0.000234603881835938,5.7220458984375E-06,0.0138530731201172,0,
00:00:04.752,-0.000240325927734375,5.7220458984375E-06,0.0138473510742188,0,
00:00:04.756,-0.000240325927734375,1.1444091796875E-05,0.0138530731201172,0,
00:00:04.76,-0.000240325927734375,5.7220458984375E-06,0.0138530731201172,0,
00:00:04.764,-0.00025177001953125,-1.1444091796875E-05,0.0138473510742188,0,
00:00:04.768,-0.000240325927734375,-5.7220458984375E-06,0.0138473510742188,0,
00:00:04.772,-0.0002288818359375,1.71661376953125E-05,0.0138473510742188,0,
00:00:04.776,-0.000240325927734375,1.1444091796875E-05,0.0138473510742188,0,
00:00:04.78,-0.000246047973632813,0,0.0138473510742188,0,
00:00:04.784,-0.0002288818359375,0,0.0138473510742188,0,
00:00:04.788,-0.000234603881835938,1.1444091796875E-05,0.0138473510742188,0,
00:00:04.792,-0.000234603881835938,1.71661376953125E-05,0.0138416290283203,0,
00:00:04.796,-0.000246047973632813,1.1444091796875E-05,0.0138473510742188,0,
00:00:04.8,-0.000268936157226563,0,0.0138530731201172,0,
00:00:04.804,-0.0002288818359375,-5.7220458984375E-06,0.0138530731201172,0,
00:00:04.808,-0.000240325927734375,-5.7220458984375E-06,0.0138416290283203,0,
00:00:04.812,-0.000246047973632813,1.1444091796875E-05,0.0138416290283203,0,
00:00:04.816,-0.000246047973632813,1.1444091796875E-05,0.0138416290283203,0,
00:00:04.82,-0.000240325927734375,1.1444091796875E-05,0.0138473510742188,0,
00:00:04.824,-0.00025177001953125,1.1444091796875E-05,0.0138473510742188,0,
00:00:04.828,-0.000246047973632813,5.7220458984375E-06,0.0138416290283203,0,
00:00:04.832,-0.00025177001953125,-5.7220458984375E-06,0.0138473510742188,0,
00:00:04.836,-0.000246047973632813,1.1444091796875E-05,0.0138416290283203,0,
00:00:04.84,-0.000240325927734375,4.00543212890625E-05,0.0138473510742188,0,
00:00:04.844,-0.000246047973632813,2.86102294921875E-05,0.0138473510742188,0,
00:00:04.848,-0.000240325927734375,1.1444091796875E-05,0.0138473510742188,0,
00:00:04.852,-0.000240325927734375,1.1444091796875E-05,0.0138416290283203,0,
00:00:04.856,-0.000240325927734375,2.288818359375E-05,0.0138416290283203,0,
00:00:04.86,-0.000246047973632813,1.71661376953125E-05,0.0138416290283203,0,
00:00:04.864,-0.000263214111328125,0,0.0138473510742188,0,
00:00:04.868,-0.000257492065429688,5.7220458984375E-06,0.0138473510742188,0,
00:00:04.872,-0.000246047973632813,3.4332275390625E-05,0.0138416290283203,0,
00:00:04.876,-0.000246047973632813,2.86102294921875E-05,0.0138416290283203,0,
00:00:04.88,-0.000234603881835938,2.288818359375E-05,0.0138416290283203,0,
00:00:04.884,-0.000246047973632813,2.288818359375E-05,0.0138473510742188,0,
00:00:04.888,-0.000263214111328125,1.71661376953125E-05,0.0138473510742188,0,
00:00:04.892,-0.000234603881835938,2.86102294921875E-05,0.0138416290283203,0,
00:00:04.896,-0.000234603881835938,2.86102294921875E-05,0.0138416290283203,0,
00:00:04.9,-0.000246047973632813,1.71661376953125E-05,0.0138416290283203,0,
00:00:04.904,-0.00025177001953125,1.71661376953125E-05,0.0138416290283203,0,
00:00:04.908,-0.000257492065429688,1.1444091796875E-05,0.0138473510742188,0,
00:00:04.912,-0.00025177001953125,5.7220458984375E-06,0.0138416290283203,0,
00:00:04.916,-0.000257492065429688,5.7220458984375E-06,0.0138359069824219,0,
00:00:04.92,-0.000246047973632813,1.71661376953125E-05,0.0138416290283203,0,
00:00:04.924,-0.000234603881835938,4.57763671875E-05,0.0138359069824219,0,
00:00:04.928,-0.000240325927734375,4.00543212890625E-05,0.0138416290283203,0,
00:00:04.932,-0.00025177001953125,2.288818359375E-05,0.0138359069824219,0,
00:00:04.936,-0.000246047973632813,2.86102294921875E-05,0.0138359069824219,0,
00:00:04.94,-0.00025177001953125,2.86102294921875E-05,0.0138359069824219,0,
00:00:04.944,-0.00025177001953125,2.288818359375E-05,0.0138416290283203,0,
00:00:04.948,-0.00025177001953125,2.288818359375E-05,0.0138416290283203,0,
00:00:04.952,-0.000257492065429688,5.7220458984375E-06,0.0138359069824219,0,
00:00:04.956,-0.000246047973632813,2.288818359375E-05,0.0138359069824219,0,
00:00:04.96,-0.000234603881835938,5.14984130859375E-05,0.0138416290283203,0,
00:00:04.964,-0.000240325927734375,4.57763671875E-05,0.0138416290283203,0,
00:00:04.968,-0.00025177001953125,4.00543212890625E-05,0.0138359069824219,0,
00:00:04.972,-0.000257492065429688,1.1444091796875E-05,0.0138301849365234,0,
00:00:04.976,-0.000268936157226563,-1.1444091796875E-05,0.0138359069824219,0,
00:00:04.98,-0.00025177001953125,3.4332275390625E-05,0.0138359069824219,0,
00:00:04.984,-0.000240325927734375,5.7220458984375E-05,0.0138416290283203,0,
00:00:04.988,-0.000246047973632813,4.57763671875E-05,0.0138416290283203,0,
00:00:04.992,-0.000246047973632813,4.57763671875E-05,0.0138301849365234,0,
00:00:04.996,-0.00025177001953125,4.00543212890625E-05,0.0138301849365234,0,
00:00:05,-0.00025177001953125,2.288818359375E-05,0.0138359069824219,0,
00:00:05.004,-0.000263214111328125,0,0.0138359069824219,0,
00:00:05.008,-0.000263214111328125,1.1444091796875E-05,0.0138359069824219,0,
00:00:05.012,-0.000246047973632813,4.57763671875E-05,0.0138359069824219,0,
00:00:05.016,-0.000234603881835938,5.7220458984375E-05,0.0138359069824219,0,
00:00:05.02,-0.000240325927734375,5.7220458984375E-05,0.0138301849365234,0,
00:00:05.024,-0.000246047973632813,4.57763671875E-05,0.0138359069824219,0,
00:00:05.028,-0.000246047973632813,4.57763671875E-05,0.0138359069824219,0,
00:00:05.032,-0.000246047973632813,4.57763671875E-05,0.0138359069824219,0,
00:00:05.036,-0.00025177001953125,3.4332275390625E-05,0.0138359069824219,0,
00:00:05.04,-0.000257492065429688,2.86102294921875E-05,0.0138301849365234,0,
00:00:05.044,-0.00025177001953125,4.57763671875E-05,0.0138359069824219,0,
00:00:05.048,-0.00025177001953125,4.00543212890625E-05,0.0138359069824219,0,
00:00:05.052,-0.000257492065429688,2.86102294921875E-05,0.0138301849365234,0,
00:00:05.056,-0.000257492065429688,2.86102294921875E-05,0.0138301849365234,0,
00:00:05.06,-0.000257492065429688,5.14984130859375E-05,0.0138359069824219,0,
00:00:05.064,-0.000257492065429688,5.7220458984375E-05,0.0138359069824219,0,
00:00:05.068,-0.000257492065429688,4.57763671875E-05,0.0138359069824219,0,
00:00:05.072,-0.000257492065429688,4.00543212890625E-05,0.0138301849365234,0,
00:00:05.076,-0.000246047973632813,6.29425048828125E-05,0.0138359069824219,0,
00:00:05.08,-0.000246047973632813,5.14984130859375E-05,0.0138359069824219,0,
00:00:05.084,-0.000263214111328125,4.00543212890625E-05,0.0138301849365234,0,
00:00:05.088,-0.000263214111328125,3.4332275390625E-05,0.0138359069824219,0,
00:00:05.092,-0.00025177001953125,4.00543212890625E-05,0.0138301849365234,0,
00:00:05.096,-0.000240325927734375,5.14984130859375E-05,0.0138301849365234,0,
00:00:05.1,-0.000246047973632813,5.14984130859375E-05,0.0138359069824219,0,
00:00:05.104,-0.000246047973632813,4.57763671875E-05,0.0138416290283203,0,
00:00:05.108,-0.00025177001953125,4.57763671875E-05,0.0138359069824219,0,
00:00:05.112,-0.000257492065429688,4.57763671875E-05,0.0138301849365234,0,
00:00:05.116,-0.000257492065429688,5.14984130859375E-05,0.0138359069824219,0,
00:00:05.12,-0.000246047973632813,5.7220458984375E-05,0.0138359069824219,0,
00:00:05.124,-0.00025177001953125,5.7220458984375E-05,0.0138359069824219,0,
00:00:05.128,-0.00025177001953125,5.7220458984375E-05,0.0138301849365234,0,
00:00:05.132,-0.00025177001953125,5.14984130859375E-05,0.0138301849365234,0,
00:00:05.136,-0.00025177001953125,4.57763671875E-05,0.0138301849365234,0,
00:00:05.14,-0.000263214111328125,4.00543212890625E-05,0.0138301849365234,0,
00:00:05.144,-0.000263214111328125,4.00543212890625E-05,0.0138359069824219,0,
00:00:05.148,-0.000257492065429688,5.7220458984375E-05,0.0138416290283203,0,
00:00:05.152,-0.00025177001953125,6.866455078125E-05,0.0138301849365234,0,
00:00:05.156,-0.00025177001953125,6.866455078125E-05,0.0138301849365234,0,
00:00:05.16,-0.000257492065429688,5.7220458984375E-05,0.0138301849365234,0,
00:00:05.164,-0.00025177001953125,5.7220458984375E-05,0.0138301849365234,0,
00:00:05.168,-0.000257492065429688,5.14984130859375E-05,0.0138301849365234,0,
00:00:05.172,-0.000274658203125,2.86102294921875E-05,0.0138301849365234,0,
00:00:05.176,-0.000263214111328125,4.00543212890625E-05,0.0138301849365234,0,
00:00:05.18,-0.00025177001953125,7.43865966796875E-05,0.0138301849365234,0,
00:00:05.184,-0.000263214111328125,8.0108642578125E-05,0.0138301849365234,0,
00:00:05.188,-0.000246047973632813,6.866455078125E-05,0.0138301849365234,0,
00:00:05.192,-0.000268936157226563,5.14984130859375E-05,0.0138301849365234,0,
00:00:05.196,-0.00025177001953125,4.00543212890625E-05,0.0138301849365234,0,
00:00:05.2,-0.000257492065429688,4.00543212890625E-05,0.0138301849365234,0,
00:00:05.204,-0.00025177001953125,6.29425048828125E-05,0.0138301849365234,0,
00:00:05.208,-0.00025177001953125,6.29425048828125E-05,0.0138301849365234,0,
00:00:05.212,-0.00025177001953125,6.866455078125E-05,0.0138301849365234,0,
00:00:05.216,-0.000257492065429688,7.43865966796875E-05,0.013824462890625,0,
00:00:05.22,-0.000246047973632813,6.29425048828125E-05,0.0138301849365234,0,
00:00:05.224,-0.000257492065429688,5.14984130859375E-05,0.0138301849365234,0,
00:00:05.228,-0.000263214111328125,5.7220458984375E-05,0.0138301849365234,0,
00:00:05.232,-0.000257492065429688,6.29425048828125E-05,0.0138301849365234,0,
00:00:05.236,-0.000257492065429688,5.7220458984375E-05,0.0138301849365234,0,
00:00:05.24,-0.000263214111328125,6.29425048828125E-05,0.013824462890625,0,
00:00:05.244,-0.000257492065429688,7.43865966796875E-05,0.0138301849365234,0,
00:00:05.248,-0.000257492065429688,7.43865966796875E-05,0.0138301849365234,0,
00:00:05.252,-0.000257492065429688,7.43865966796875E-05,0.0138301849365234,0,
00:00:05.256,-0.000257492065429688,7.43865966796875E-05,0.013824462890625,0,
00:00:05.26,-0.000263214111328125,6.29425048828125E-05,0.0138301849365234,0,
00:00:05.264,-0.000268936157226563,4.57763671875E-05,0.0138301849365234,0,
00:00:05.268,-0.000268936157226563,5.7220458984375E-05,0.0138301849365234,0,
00:00:05.272,-0.00025177001953125,8.58306884765625E-05,0.013824462890625,0,
00:00:05.276,-0.00025177001953125,8.58306884765625E-05,0.013824462890625,0,
00:00:05.28,-0.00025177001953125,7.43865966796875E-05,0.0138359069824219,0,
00:00:05.284,-0.000268936157226563,5.7220458984375E-05,0.013824462890625,0,
00:00:05.288,-0.000263214111328125,5.14984130859375E-05,0.013824462890625,0,
00:00:05.292,-0.000257492065429688,6.866455078125E-05,0.013824462890625,0,
00:00:05.296,-0.000263214111328125,6.866455078125E-05,0.013824462890625,0,
00:00:05.3,-0.000257492065429688,8.0108642578125E-05,0.013824462890625,0,
00:00:05.304,-0.000257492065429688,8.58306884765625E-05,0.013824462890625,0,
00:00:05.308,-0.000263214111328125,6.866455078125E-05,0.013824462890625,0,
00:00:05.312,-0.000274658203125,4.57763671875E-05,0.013824462890625,0,
00:00:05.316,-0.000274658203125,4.57763671875E-05,0.0138301849365234,0,
00:00:05.32,-0.000268936157226563,7.43865966796875E-05,0.013824462890625,0,
00:00:05.324,-0.00025177001953125,9.1552734375E-05,0.013824462890625,0,
00:00:05.328,-0.000246047973632813,8.58306884765625E-05,0.0138301849365234,0,
00:00:05.332,-0.000268936157226563,6.29425048828125E-05,0.013824462890625,0,
00:00:05.336,-0.000268936157226563,5.7220458984375E-05,0.013824462890625,0,
00:00:05.34,-0.000268936157226563,8.0108642578125E-05,0.013824462890625,0,
00:00:05.344,-0.000263214111328125,8.0108642578125E-05,0.0138301849365234,0,
00:00:05.348,-0.000246047973632813,8.58306884765625E-05,0.013824462890625,0,
00:00:05.352,-0.000246047973632813,8.58306884765625E-05,0.0138187408447266,0,
00:00:05.356,-0.000257492065429688,8.58306884765625E-05,0.013824462890625,0,
00:00:05.36,-0.000263214111328125,8.0108642578125E-05,0.0138301849365234,0,
00:00:05.364,-0.000257492065429688,7.43865966796875E-05,0.013824462890625,0,
00:00:05.368,-0.000263214111328125,7.43865966796875E-05,0.013824462890625,0,
00:00:05.372,-0.000263214111328125,8.0108642578125E-05,0.0138187408447266,0,
00:00:05.376,-0.000257492065429688,8.58306884765625E-05,0.0138187408447266,0,
00:00:05.38,-0.000263214111328125,8.0108642578125E-05,0.013824462890625,0,
00:00:05.384,-0.000268936157226563,7.43865966796875E-05,0.013824462890625,0,
00:00:05.388,-0.000268936157226563,6.866455078125E-05,0.013824462890625,0,
00:00:05.392,-0.000268936157226563,6.866455078125E-05,0.0138187408447266,0,
00:00:05.396,-0.000263214111328125,8.58306884765625E-05,0.0138187408447266,0,
00:00:05.4,-0.000263214111328125,8.0108642578125E-05,0.0138187408447266,0,
00:00:05.404,-0.000257492065429688,8.0108642578125E-05,0.013824462890625,0,
00:00:05.408,-0.000263214111328125,7.43865966796875E-05,0.0138187408447266,0,
00:00:05.412,-0.000268936157226563,8.58306884765625E-05,0.0138187408447266,0,
00:00:05.416,-0.000263214111328125,8.58306884765625E-05,0.0138187408447266,0,
00:00:05.42,-0.000263214111328125,8.58306884765625E-05,0.013824462890625,0,
00:00:05.424,-0.000274658203125,8.0108642578125E-05,0.0138301849365234,0,
00:00:05.428,-0.000274658203125,8.58306884765625E-05,0.0138187408447266,0,
00:00:05.432,-0.000274658203125,9.1552734375E-05,0.0138187408447266,0,
00:00:05.436,-0.000263214111328125,8.58306884765625E-05,0.0138187408447266,0,
00:00:05.44,-0.000257492065429688,8.0108642578125E-05,0.0138187408447266,0,
00:00:05.444,-0.000263214111328125,9.1552734375E-05,0.0138187408447266,0,
00:00:05.448,-0.000263214111328125,9.72747802734375E-05,0.013824462890625,0,
00:00:05.452,-0.000274658203125,9.72747802734375E-05,0.0138187408447266,0,
00:00:05.456,-0.000263214111328125,9.72747802734375E-05,0.0138187408447266,0,
00:00:05.46,-0.000263214111328125,8.58306884765625E-05,0.0138187408447266,0,
00:00:05.464,-0.000263214111328125,8.58306884765625E-05,0.0138187408447266,0,
00:00:05.468,-0.000274658203125,8.0108642578125E-05,0.0138187408447266,0,
00:00:05.472,-0.000274658203125,5.7220458984375E-05,0.0138187408447266,0,
00:00:05.476,-0.000268936157226563,6.29425048828125E-05,0.0138130187988281,0,
00:00:05.48,-0.000268936157226563,0.000102996826171875,0.0138187408447266,0,
00:00:05.484,-0.000263214111328125,0.000108718872070313,0.013824462890625,0,
00:00:05.488,-0.000263214111328125,0.000108718872070313,0.0138130187988281,0,
00:00:05.492,-0.000263214111328125,0.000102996826171875,0.0138130187988281,0,
00:00:05.496,-0.000263214111328125,9.72747802734375E-05,0.0138130187988281,0,
00:00:05.5,-0.000268936157226563,8.58306884765625E-05,0.0138187408447266,0,
00:00:05.504,-0.000286102294921875,5.14984130859375E-05,0.013824462890625,0,
00:00:05.508,-0.000280380249023438,6.29425048828125E-05,0.0138130187988281,0,
00:00:05.512,-0.000268936157226563,0.00011444091796875,0.0138130187988281,0,
00:00:05.516,-0.00025177001953125,0.000131607055664063,0.0138130187988281,0,
00:00:05.52,-0.000257492065429688,0.000120162963867188,0.0138187408447266,0,
00:00:05.524,-0.000263214111328125,0.000102996826171875,0.0138130187988281,0,
00:00:05.528,-0.000268936157226563,0.000108718872070313,0.0138187408447266,0,
00:00:05.532,-0.000274658203125,0.000102996826171875,0.0138187408447266,0,
00:00:05.536,-0.000268936157226563,8.58306884765625E-05,0.0138187408447266,0,
00:00:05.54,-0.000291824340820313,6.29425048828125E-05,0.0138187408447266,0,
00:00:05.544,-0.000291824340820313,8.58306884765625E-05,0.0138187408447266,0,
00:00:05.548,-0.000268936157226563,0.000125885009765625,0.0138130187988281,0,
00:00:05.552,-0.000263214111328125,0.000120162963867188,0.0138130187988281,0,
00:00:05.556,-0.000263214111328125,0.000120162963867188,0.0138130187988281,0,
00:00:05.56,-0.000263214111328125,0.000108718872070313,0.0138130187988281,0,
00:00:05.564,-0.000263214111328125,0.000108718872070313,0.0138130187988281,0,
00:00:05.568,-0.000268936157226563,0.000102996826171875,0.0138130187988281,0,
00:00:05.572,-0.000268936157226563,0.000102996826171875,0.0138130187988281,0,
00:00:05.576,-0.000274658203125,9.1552734375E-05,0.0138130187988281,0,
00:00:05.58,-0.000291824340820313,5.7220458984375E-05,0.0138130187988281,0,
00:00:05.584,-0.000314712524414063,5.14984130859375E-05,0.013824462890625,0,
00:00:05.588,-0.000286102294921875,0.00011444091796875,0.013824462890625,0,
00:00:05.592,-0.000246047973632813,0.000148773193359375,0.0138072967529297,0,
00:00:05.596,-0.000263214111328125,0.000131607055664063,0.0138130187988281,0,
00:00:05.6,-0.000268936157226563,0.000120162963867188,0.0138130187988281,0,
00:00:05.604,-0.000268936157226563,0.00011444091796875,0.0138130187988281,0,
00:00:05.608,-0.000274658203125,0.00011444091796875,0.0138130187988281,0,
00:00:05.612,-0.000274658203125,0.000108718872070313,0.0138130187988281,0,
00:00:05.616,-0.000280380249023438,9.72747802734375E-05,0.0138130187988281,0,
00:00:05.62,-0.000291824340820313,8.0108642578125E-05,0.0138130187988281,0,
00:00:05.624,-0.00029754638671875,6.29425048828125E-05,0.0138130187988281,0,
00:00:05.628,-0.000280380249023438,9.72747802734375E-05,0.0138187408447266,0,
00:00:05.632,-0.000268936157226563,0.000143051147460938,0.0138187408447266,0,
00:00:05.636,-0.000280380249023438,0.000131607055664063,0.0138130187988281,0,
00:00:05.64,-0.000268936157226563,0.000125885009765625,0.0138130187988281,0,
00:00:05.644,-0.000268936157226563,0.000120162963867188,0.0138072967529297,0,
00:00:05.648,-0.000274658203125,0.000120162963867188,0.0138072967529297,0,
00:00:05.652,-0.000274658203125,0.00011444091796875,0.0138072967529297,0,
00:00:05.656,-0.000280380249023438,9.72747802734375E-05,0.0138072967529297,0,
00:00:05.66,-0.000286102294921875,8.0108642578125E-05,0.0138072967529297,0,
00:00:05.664,-0.000280380249023438,0.000102996826171875,0.0138130187988281,0,
00:00:05.668,-0.000280380249023438,0.000120162963867188,0.0138130187988281,0,
00:00:05.672,-0.00029754638671875,0.00011444091796875,0.0138130187988281,0,
00:00:05.676,-0.000263214111328125,0.000125885009765625,0.0138130187988281,0,
00:00:05.68,-0.000268936157226563,0.000131607055664063,0.0138015747070313,0,
00:00:05.684,-0.000280380249023438,0.000120162963867188,0.0138072967529297,0,
00:00:05.688,-0.000274658203125,0.000120162963867188,0.0138072967529297,0,
00:00:05.692,-0.000280380249023438,0.000108718872070313,0.0138072967529297,0,
00:00:05.696,-0.000286102294921875,0.00011444091796875,0.0138015747070313,0,
00:00:05.7,-0.000280380249023438,0.000131607055664063,0.0138015747070313,0,
00:00:05.704,-0.000291824340820313,0.000125885009765625,0.0138072967529297,0,
00:00:05.708,-0.000280380249023438,0.000120162963867188,0.0138072967529297,0,
00:00:05.712,-0.000280380249023438,0.000120162963867188,0.0138015747070313,0,
00:00:05.716,-0.000286102294921875,0.00011444091796875,0.0138015747070313,0,
00:00:05.72,-0.000286102294921875,0.000120162963867188,0.0138015747070313,0,
00:00:05.724,-0.000291824340820313,0.00011444091796875,0.0138072967529297,0,
00:00:05.728,-0.000286102294921875,0.000108718872070313,0.0138015747070313,0,
00:00:05.732,-0.000274658203125,0.000120162963867188,0.0138015747070313,0,
00:00:05.736,-0.000274658203125,0.000125885009765625,0.0138015747070313,0,
00:00:05.74,-0.000280380249023438,0.000125885009765625,0.0138015747070313,0,
00:00:05.744,-0.000291824340820313,0.000125885009765625,0.0138072967529297,0,
00:00:05.748,-0.000308990478515625,0.000125885009765625,0.0138130187988281,0,
00:00:05.752,-0.000274658203125,0.000131607055664063,0.0138015747070313,0,
00:00:05.756,-0.000280380249023438,0.000131607055664063,0.0138015747070313,0,
00:00:05.76,-0.000286102294921875,0.000131607055664063,0.0137958526611328,0,
00:00:05.764,-0.000274658203125,0.000131607055664063,0.0138015747070313,0,
00:00:05.768,-0.000286102294921875,0.000120162963867188,0.0138015747070313,0,
00:00:05.772,-0.00029754638671875,0.00011444091796875,0.0138015747070313,0,
00:00:05.776,-0.000291824340820313,0.000120162963867188,0.0138015747070313,0,
00:00:05.78,-0.000286102294921875,0.000131607055664063,0.0138015747070313,0,
00:00:05.784,-0.000291824340820313,0.000143051147460938,0.0138015747070313,0,
00:00:05.788,-0.000291824340820313,0.000131607055664063,0.0138072967529297,0,
00:00:05.792,-0.000280380249023438,0.000131607055664063,0.0138015747070313,0,
00:00:05.796,-0.000274658203125,0.000131607055664063,0.0137901306152344,0,
00:00:05.8,-0.000286102294921875,0.000120162963867188,0.0138015747070313,0,
00:00:05.804,-0.000291824340820313,0.000120162963867188,0.0138015747070313,0,
00:00:05.808,-0.00029754638671875,0.000125885009765625,0.0138015747070313,0,
00:00:05.812,-0.000286102294921875,0.000131607055664063,0.0137958526611328,0,
00:00:05.816,-0.000286102294921875,0.0001373291015625,0.0137958526611328,0,
00:00:05.82,-0.000286102294921875,0.000143051147460938,0.0137958526611328,0,
00:00:05.824,-0.000280380249023438,0.000148773193359375,0.0138015747070313,0,
00:00:05.828,-0.000280380249023438,0.0001373291015625,0.0138015747070313,0,
00:00:05.832,-0.000280380249023438,0.000131607055664063,0.0137958526611328,0,
00:00:05.836,-0.000286102294921875,0.00011444091796875,0.0138015747070313,0,
00:00:05.84,-0.000291824340820313,0.00011444091796875,0.0138015747070313,0,
00:00:05.844,-0.00029754638671875,0.000125885009765625,0.0137958526611328,0,
00:00:05.848,-0.000280380249023438,0.000148773193359375,0.0137958526611328,0,
00:00:05.852,-0.000286102294921875,0.000143051147460938,0.0137958526611328,0,
00:00:05.856,-0.00029754638671875,0.000125885009765625,0.0137958526611328,0,
00:00:05.86,-0.000291824340820313,0.000131607055664063,0.0138015747070313,0,
00:00:05.864,-0.000286102294921875,0.000154495239257813,0.0137958526611328,0,
00:00:05.868,-0.000291824340820313,0.000154495239257813,0.0137958526611328,0,
00:00:05.872,-0.000286102294921875,0.000148773193359375,0.0137958526611328,0,
00:00:05.876,-0.000280380249023438,0.000143051147460938,0.0137901306152344,0,
00:00:05.88,-0.000291824340820313,0.000143051147460938,0.0137901306152344,0,
00:00:05.884,-0.000286102294921875,0.0001373291015625,0.0137958526611328,0,
00:00:05.888,-0.000280380249023438,0.000148773193359375,0.0137958526611328,0,
00:00:05.892,-0.000286102294921875,0.000154495239257813,0.0137901306152344,0,
00:00:05.896,-0.000286102294921875,0.000148773193359375,0.0137901306152344,0,
00:00:05.9,-0.000280380249023438,0.000148773193359375,0.0137958526611328,0,
00:00:05.904,-0.00029754638671875,0.000143051147460938,0.0137958526611328,0,
00:00:05.908,-0.000303268432617188,0.0001373291015625,0.0137901306152344,0,
00:00:05.912,-0.000291824340820313,0.000125885009765625,0.0137901306152344,0,
00:00:05.916,-0.00029754638671875,0.000125885009765625,0.0137901306152344,0,
00:00:05.92,-0.000303268432617188,0.0001373291015625,0.0137901306152344,0,
00:00:05.924,-0.000280380249023438,0.00016021728515625,0.0137958526611328,0,
00:00:05.928,-0.000286102294921875,0.000154495239257813,0.0137958526611328,0,
00:00:05.932,-0.000291824340820313,0.000148773193359375,0.0137901306152344,0,
00:00:05.936,-0.000291824340820313,0.000154495239257813,0.0137901306152344,0,
00:00:05.94,-0.000291824340820313,0.000154495239257813,0.0137901306152344,0,
00:00:05.944,-0.00029754638671875,0.000154495239257813,0.0137901306152344,0,
00:00:05.948,-0.000303268432617188,0.000148773193359375,0.0137901306152344,0,
00:00:05.952,-0.000286102294921875,0.000154495239257813,0.0137901306152344,0,
00:00:05.956,-0.000286102294921875,0.00016021728515625,0.0137901306152344,0,
00:00:05.96,-0.00029754638671875,0.000148773193359375,0.0137901306152344,0,
00:00:05.964,-0.00029754638671875,0.000143051147460938,0.0137901306152344,0,
00:00:05.968,-0.00029754638671875,0.00016021728515625,0.0137901306152344,0,
00:00:05.972,-0.00029754638671875,0.000154495239257813,0.0137901306152344,0,
00:00:05.976,-0.00029754638671875,0.000148773193359375,0.0137844085693359,0,
00:00:05.98,-0.000308990478515625,0.00016021728515625,0.0137901306152344,0,
00:00:05.984,-0.000286102294921875,0.000171661376953125,0.0137901306152344,0,
00:00:05.988,-0.000291824340820313,0.000165939331054688,0.0137901306152344,0,
00:00:05.992,-0.000291824340820313,0.00016021728515625,0.0137844085693359,0,
00:00:05.996,-0.00029754638671875,0.000148773193359375,0.0137844085693359,0,
00:00:06,-0.000303268432617188,0.000148773193359375,0.0137901306152344,0,
00:00:06.004,-0.000303268432617188,0.000148773193359375,0.0137901306152344,0,
00:00:06.008,-0.000303268432617188,0.000148773193359375,0.0137901306152344,0,
00:00:06.012,-0.00029754638671875,0.00016021728515625,0.0137844085693359,0,
00:00:06.016,-0.00029754638671875,0.000171661376953125,0.0137844085693359,0,
00:00:06.02,-0.00029754638671875,0.000177383422851563,0.0137844085693359,0,
00:00:06.024,-0.000303268432617188,0.000171661376953125,0.0137901306152344,0,
00:00:06.028,-0.000303268432617188,0.00016021728515625,0.0137844085693359,0,
00:00:06.032,-0.000308990478515625,0.000148773193359375,0.0137844085693359,0,
00:00:06.036,-0.000303268432617188,0.000154495239257813,0.0137901306152344,0,
00:00:06.04,-0.00029754638671875,0.00016021728515625,0.0137844085693359,0,
00:00:06.044,-0.00029754638671875,0.000171661376953125,0.0137844085693359,0,
00:00:06.048,-0.00029754638671875,0.000171661376953125,0.0137901306152344,0,
00:00:06.052,-0.00029754638671875,0.00016021728515625,0.0137901306152344,0,
00:00:06.056,-0.000314712524414063,0.00016021728515625,0.0137901306152344,0,
00:00:06.06,-0.00034332275390625,0.00016021728515625,0.0137844085693359,0,
00:00:06.064,-0.000303268432617188,0.000165939331054688,0.0137901306152344,0,
00:00:06.068,-0.000286102294921875,0.000165939331054688,0.0137844085693359,0,
00:00:06.072,-0.000303268432617188,0.000171661376953125,0.0137844085693359,0,
00:00:06.076,-0.000308990478515625,0.000171661376953125,0.0137786865234375,0,
00:00:06.08,-0.000291824340820313,0.000171661376953125,0.0137786865234375,0,
00:00:06.084,-0.000291824340820313,0.000177383422851563,0.0137844085693359,0,
00:00:06.088,-0.00029754638671875,0.000171661376953125,0.0137844085693359,0,
00:00:06.092,-0.000303268432617188,0.000143051147460938,0.0137786865234375,0,
00:00:06.096,-0.000308990478515625,0.000143051147460938,0.0137786865234375,0,
00:00:06.1,-0.00029754638671875,0.00018310546875,0.0137844085693359,0,
00:00:06.104,-0.00029754638671875,0.000200271606445313,0.0137844085693359,0,
00:00:06.108,-0.00029754638671875,0.000188827514648438,0.0137844085693359,0,
00:00:06.112,-0.000308990478515625,0.000177383422851563,0.0137844085693359,0,
00:00:06.116,-0.000308990478515625,0.00016021728515625,0.0137844085693359,0,
00:00:06.12,-0.000314712524414063,0.000154495239257813,0.0137844085693359,0,
00:00:06.124,-0.000308990478515625,0.000165939331054688,0.0137844085693359,0,
00:00:06.128,-0.000303268432617188,0.000177383422851563,0.0137844085693359,0,
00:00:06.132,-0.000303268432617188,0.000194549560546875,0.0137844085693359,0,
00:00:06.136,-0.000303268432617188,0.00018310546875,0.0137786865234375,0,
00:00:06.14,-0.000303268432617188,0.000177383422851563,0.0137786865234375,0,
00:00:06.144,-0.000308990478515625,0.00018310546875,0.0137786865234375,0,
00:00:06.148,-0.0003204345703125,0.000177383422851563,0.0137786865234375,0,
00:00:06.152,-0.000308990478515625,0.000171661376953125,0.0137786865234375,0,
00:00:06.156,-0.000326156616210938,0.000171661376953125,0.0137844085693359,0,
00:00:06.16,-0.0003204345703125,0.000148773193359375,0.0137844085693359,0,
00:00:06.164,-0.000308990478515625,0.000165939331054688,0.0137844085693359,0,
00:00:06.168,-0.00029754638671875,0.000194549560546875,0.0137786865234375,0,
00:00:06.172,-0.00029754638671875,0.000194549560546875,0.0137729644775391,0,
00:00:06.176,-0.000303268432617188,0.000188827514648438,0.0137786865234375,0,
00:00:06.18,-0.000308990478515625,0.000188827514648438,0.0137786865234375,0,
00:00:06.184,-0.000314712524414063,0.000171661376953125,0.0137844085693359,0,
00:00:06.188,-0.0003204345703125,0.0001373291015625,0.0137844085693359,0,
00:00:06.192,-0.000331878662109375,0.00016021728515625,0.0137786865234375,0,
00:00:06.196,-0.00029754638671875,0.000211715698242188,0.0137786865234375,0,
00:00:06.2,-0.00029754638671875,0.000217437744140625,0.0137786865234375,0,
00:00:06.204,-0.000308990478515625,0.000200271606445313,0.0137786865234375,0,
00:00:06.208,-0.000308990478515625,0.000194549560546875,0.0137786865234375,0,
00:00:06.212,-0.000314712524414063,0.000188827514648438,0.0137786865234375,0,
