Elapsed Time,EMG1,EMG2,EMG3,BioRadio Event,
00:00:00,-0.000217437744140625,0.0020599365234375,0.00559616088867188,0,
00:00:00.004,-0.000171661376953125,0.002105712890625,0.00562477111816406,0,
00:00:00.008,-0.000143051147460938,0.00214004516601563,0.0056304931640625,0,
00:00:00.012,-0.000131607055664063,0.0021514892578125,0.00563621520996094,0,
00:00:00.016,-0.0001373291015625,0.00214004516601563,0.00563621520996094,0,
00:00:00.02,-0.000143051147460938,0.00212860107421875,0.00564193725585938,0,
00:00:00.024,-0.0001373291015625,0.00214004516601563,0.00565910339355469,0,
00:00:00.028,-0.000131607055664063,0.0021514892578125,0.00565338134765625,0,
00:00:00.032,-0.000143051147460938,0.00214004516601563,0.00565338134765625,0,
00:00:00.036,-0.000131607055664063,0.00214576721191406,0.00566482543945313,0,
00:00:00.04,-0.0001373291015625,0.00214004516601563,0.00566482543945313,0,
00:00:00.044,-0.000143051147460938,0.00209426879882813,0.00567626953125,0,
00:00:00.048,-0.000125885009765625,0.00211143493652344,0.00567626953125,0,
00:00:00.052,-0.000120162963867188,0.00214004516601563,0.00567054748535156,0,
00:00:00.056,-0.000177383422851563,0.00211143493652344,0.00568199157714844,0,
00:00:00.06,-0.000177383422851563,0.00212287902832031,0.00568771362304688,0,
00:00:00.064,-0.000188827514648438,0.00208854675292969,0.00569343566894531,0,
00:00:00.068,-0.000131607055664063,0.00212860107421875,0.00571632385253906,0,
00:00:00.072,-0.000148773193359375,0.00211143493652344,0.00568771362304688,0,
00:00:00.076,-0.00011444091796875,0.00216865539550781,0.00571060180664063,0,
00:00:00.08,-0.000211715698242188,0.00206565856933594,0.00569343566894531,0,
00:00:00.084,-0.000274658203125,0.00199127197265625,0.00568199157714844,0,
00:00:00.088,-0.000240325927734375,0.00205421447753906,0.00570487976074219,0,
00:00:00.092,-0.000211715698242188,0.00207138061523438,0.00570487976074219,0,
00:00:00.096,-0.000211715698242188,0.00206565856933594,0.00570487976074219,0,
00:00:00.1,-0.000217437744140625,0.00206565856933594,0.00569915771484375,0,
00:00:00.104,-0.000223159790039063,0.0020599365234375,0.00571060180664063,0,
00:00:00.108,-0.000223159790039063,0.0020599365234375,0.00571632385253906,0,
00:00:00.112,-0.0002288818359375,0.0020599365234375,0.00572776794433594,0,
00:00:00.116,-0.0002288818359375,0.00204849243164063,0.00570487976074219,0,
00:00:00.12,-0.0002288818359375,0.00205421447753906,0.00571632385253906,0,
00:00:00.124,-0.0002288818359375,0.00204849243164063,0.0057220458984375,0,
00:00:00.128,-0.000240325927734375,0.00201988220214844,0.00572776794433594,0,
00:00:00.132,-0.0002288818359375,0.00204849243164063,0.0057220458984375,0,
00:00:00.136,-0.000200271606445313,0.00206565856933594,0.0057220458984375,0,
00:00:00.14,-0.000188827514648438,0.00204277038574219,0.00572776794433594,0,
00:00:00.144,-0.000211715698242188,0.00204849243164063,0.00575637817382813,0,
00:00:00.148,-0.000303268432617188,0.00198554992675781,0.00575065612792969,0,
00:00:00.152,-0.000308990478515625,0.00197410583496094,0.00575637817382813,0,
00:00:00.156,-0.000274658203125,0.00198554992675781,0.00574493408203125,0,
00:00:00.16,-0.000177383422851563,0.00206565856933594,0.00576210021972656,0,
00:00:00.164,-0.000303268432617188,0.00198554992675781,0.00579071044921875,0,
00:00:00.168,-0.000337600708007813,0.00193405151367188,0.00577354431152344,0,
00:00:00.172,-0.000308990478515625,0.00197982788085938,0.00577354431152344,0,
00:00:00.176,-0.00029754638671875,0.00198554992675781,0.00578498840332031,0,
00:00:00.18,-0.000291824340820313,0.00197982788085938,0.00578498840332031,0,
00:00:00.184,-0.000303268432617188,0.0019683837890625,0.00577926635742188,0,
00:00:00.188,-0.00029754638671875,0.00196266174316406,0.00578498840332031,0,
00:00:00.192,-0.00029754638671875,0.00197982788085938,0.00580215454101563,0,
00:00:00.196,-0.000314712524414063,0.00197410583496094,0.00579643249511719,0,
00:00:00.2,-0.0003204345703125,0.00195693969726563,0.00579643249511719,0,
00:00:00.204,-0.0003204345703125,0.00195121765136719,0.0058135986328125,0,
00:00:00.208,-0.000314712524414063,0.00195121765136719,0.0058135986328125,0,
00:00:00.212,-0.000314712524414063,0.00194549560546875,0.00581932067871094,0,
00:00:00.216,-0.0003204345703125,0.00194549560546875,0.0058135986328125,0,
00:00:00.22,-0.0003204345703125,0.00196266174316406,0.00582504272460938,0,
00:00:00.224,-0.000291824340820313,0.00196266174316406,0.00583648681640625,0,
00:00:00.228,-0.000268936157226563,0.00199699401855469,0.00583648681640625,0,
00:00:00.232,-0.000360488891601563,0.00186538696289063,0.0058135986328125,0,
00:00:00.236,-0.000257492065429688,0.00199127197265625,0.00584220886230469,0,
00:00:00.24,-0.000286102294921875,0.00201416015625,0.0058135986328125,0,
00:00:00.244,-0.000509262084960938,0.00176811218261719,0.00583076477050781,0,
00:00:00.248,-0.00043487548828125,0.00181961059570313,0.00587081909179688,0,
00:00:00.252,-0.00038909912109375,0.00185966491699219,0.00587081909179688,0,
00:00:00.256,-0.000383377075195313,0.00184822082519531,0.00587081909179688,0,
00:00:00.26,-0.00038909912109375,0.00184822082519531,0.00586509704589844,0,
00:00:00.264,-0.000394821166992188,0.0018768310546875,0.00586509704589844,0,
00:00:00.268,-0.000394821166992188,0.00187110900878906,0.00586509704589844,0,
00:00:00.272,-0.000394821166992188,0.00185966491699219,0.00586509704589844,0,
00:00:00.276,-0.000400543212890625,0.00184249877929688,0.00587654113769531,0,
00:00:00.28,-0.000394821166992188,0.0018310546875,0.00588226318359375,0,
00:00:00.284,-0.000406265258789063,0.00182533264160156,0.00588226318359375,0,
00:00:00.288,-0.0004119873046875,0.00180816650390625,0.00588798522949219,0,
00:00:00.292,-0.000400543212890625,0.00181388854980469,0.00589942932128906,0,
00:00:00.296,-0.000377655029296875,0.00184249877929688,0.00589370727539063,0,
00:00:00.3,-0.000354766845703125,0.00187110900878906,0.00588226318359375,0,
00:00:00.304,-0.000417709350585938,0.00176811218261719,0.0059051513671875,0,
00:00:00.308,-0.000446319580078125,0.00173377990722656,0.00588798522949219,0,
00:00:00.312,-0.000452041625976563,0.00177955627441406,0.00587081909179688,0,
00:00:00.316,-0.000446319580078125,0.00180244445800781,0.0059051513671875,0,
00:00:00.32,-0.000423431396484375,0.00179100036621094,0.00591659545898438,0,
00:00:00.324,-0.000423431396484375,0.00176811218261719,0.00591659545898438,0,
00:00:00.328,-0.000406265258789063,0.00179672241210938,0.00591087341308594,0,
00:00:00.332,-0.00048065185546875,0.00175666809082031,0.00591659545898438,0,
00:00:00.336,-0.000474929809570313,0.00176239013671875,0.00592231750488281,0,
00:00:00.34,-0.000452041625976563,0.00179100036621094,0.00592803955078125,0,
00:00:00.344,-0.000446319580078125,0.00179100036621094,0.00593376159667969,0,
00:00:00.348,-0.000440597534179688,0.00180244445800781,0.00592803955078125,0,
00:00:00.352,-0.000446319580078125,0.00176811218261719,0.00592803955078125,0,
00:00:00.356,-0.00043487548828125,0.00176811218261719,0.00593948364257813,0,
00:00:00.36,-0.000423431396484375,0.00179100036621094,0.00594520568847656,0,
00:00:00.364,-0.000463485717773438,0.00176811218261719,0.00594520568847656,0,
00:00:00.368,-0.000474929809570313,0.00172805786132813,0.00595664978027344,0,
00:00:00.372,-0.000457763671875,0.00172805786132813,0.00596237182617188,0,
00:00:00.376,-0.000463485717773438,0.00172233581542969,0.00596809387207031,0,
00:00:00.38,-0.000486373901367188,0.00168228149414063,0.00595664978027344,0,
00:00:00.384,-0.000486373901367188,0.0016937255859375,0.00596809387207031,0,
00:00:00.388,-0.000486373901367188,0.00170516967773438,0.00597381591796875,0,
00:00:00.392,-0.000486373901367188,0.00168800354003906,0.00596237182617188,0,
00:00:00.396,-0.00048065185546875,0.00169944763183594,0.00597381591796875,0,
00:00:00.4,-0.000457763671875,0.00173377990722656,0.00597953796386719,0,
00:00:00.404,-0.000429153442382813,0.00174522399902344,0.00598526000976563,0,
00:00:00.408,-0.000492095947265625,0.00166511535644531,0.00599098205566406,0,
00:00:00.412,-0.000486373901367188,0.00168800354003906,0.00597381591796875,0,
00:00:00.416,-0.00038909912109375,0.00180816650390625,0.00597953796386719,0,
00:00:00.42,-0.00043487548828125,0.00173377990722656,0.00599098205566406,0,
00:00:00.424,-0.000566482543945313,0.00157356262207031,0.00598526000976563,0,
00:00:00.428,-0.00052642822265625,0.00163078308105469,0.00601387023925781,0,
00:00:00.432,-0.000492095947265625,0.00166511535644531,0.00600814819335938,0,
00:00:00.436,-0.000492095947265625,0.00165367126464844,0.00600814819335938,0,
00:00:00.44,-0.0005035400390625,0.00164222717285156,0.00600242614746094,0,
00:00:00.444,-0.000497817993164063,0.00164222717285156,0.0059967041015625,0,
00:00:00.448,-0.000492095947265625,0.00163078308105469,0.00600242614746094,0,
00:00:00.452,-0.00048065185546875,0.00163078308105469,0.00600814819335938,0,
00:00:00.456,-0.000486373901367188,0.00161933898925781,0.00600814819335938,0,
00:00:00.46,-0.000509262084960938,0.00161933898925781,0.00601387023925781,0,
00:00:00.464,-0.000497817993164063,0.00163078308105469,0.00601387023925781,0,
00:00:00.468,-0.000474929809570313,0.00168800354003906,0.00601959228515625,0,
00:00:00.472,-0.000509262084960938,0.00165939331054688,0.00600242614746094,0,
00:00:00.476,-0.000532150268554688,0.00158500671386719,0.00599098205566406,0,
00:00:00.48,-0.000497817993164063,0.00161361694335938,0.00600814819335938,0,
00:00:00.484,-0.00048065185546875,0.00161933898925781,0.00602531433105469,0,
00:00:00.488,-0.000520706176757813,0.00159645080566406,0.00602531433105469,0,
00:00:00.492,-0.00052642822265625,0.00159645080566406,0.00600814819335938,0,
00:00:00.496,-0.00052642822265625,0.00159645080566406,0.00601387023925781,0,
00:00:00.5,-0.000532150268554688,0.00159072875976563,0.00602531433105469,0,
00:00:00.504,-0.00052642822265625,0.00159645080566406,0.00601387023925781,0,
00:00:00.508,-0.000514984130859375,0.00159072875976563,0.00601387023925781,0,
00:00:00.512,-0.00054931640625,0.00153350830078125,0.00601387023925781,0,
00:00:00.516,-0.00054931640625,0.00153350830078125,0.00600814819335938,0,
00:00:00.52,-0.000543594360351563,0.00153350830078125,0.00600814819335938,0,
00:00:00.524,-0.000543594360351563,0.00152778625488281,0.00600242614746094,0,
00:00:00.528,-0.000543594360351563,0.00154495239257813,0.00601387023925781,0,
00:00:00.532,-0.000537872314453125,0.00156211853027344,0.00600814819335938,0,
00:00:00.536,-0.000532150268554688,0.00156784057617188,0.00600814819335938,0,
00:00:00.54,-0.000514984130859375,0.001556396484375,0.00600242614746094,0,
00:00:00.544,-0.000514984130859375,0.00155067443847656,0.00601959228515625,0,
00:00:00.548,-0.0005035400390625,0.001556396484375,0.00601387023925781,0,
00:00:00.552,-0.000514984130859375,0.00157356262207031,0.00604248046875,0,
00:00:00.556,-0.000514984130859375,0.00157356262207031,0.00604248046875,0,
00:00:00.56,-0.000555038452148438,0.00151634216308594,0.00601387023925781,0,
00:00:00.564,-0.000543594360351563,0.00152206420898438,0.00602531433105469,0,
00:00:00.568,-0.00054931640625,0.00151634216308594,0.00602531433105469,0,
00:00:00.572,-0.000543594360351563,0.00153350830078125,0.00600814819335938,0,
00:00:00.576,-0.000543594360351563,0.00149917602539063,0.00602531433105469,0,
00:00:00.58,-0.000520706176757813,0.00155067443847656,0.00603103637695313,0,
00:00:00.584,-0.000566482543945313,0.00153923034667969,0.00601959228515625,0,
00:00:00.588,-0.000555038452148438,0.00155067443847656,0.00601959228515625,0,
00:00:00.592,-0.000543594360351563,0.00156211853027344,0.00601959228515625,0,
00:00:00.596,-0.000532150268554688,0.001556396484375,0.00600814819335938,0,
00:00:00.6,-0.000537872314453125,0.001556396484375,0.00601959228515625,0,
00:00:00.604,-0.000532150268554688,0.00155067443847656,0.00601959228515625,0,
00:00:00.608,-0.000543594360351563,0.00153923034667969,0.00601959228515625,0,
00:00:00.612,-0.000560760498046875,0.00153923034667969,0.00600814819335938,0,
00:00:00.616,-0.000566482543945313,0.00153923034667969,0.00600242614746094,0,
00:00:00.62,-0.000560760498046875,0.00155067443847656,0.00601387023925781,0,
00:00:00.624,-0.000560760498046875,0.001556396484375,0.00600814819335938,0,
00:00:00.628,-0.000566482543945313,0.00154495239257813,0.00600814819335938,0,
00:00:00.632,-0.000566482543945313,0.00153350830078125,0.00600814819335938,0,
00:00:00.636,-0.000577926635742188,0.00152778625488281,0.00600242614746094,0,
00:00:00.64,-0.000566482543945313,0.00153923034667969,0.0059967041015625,0,
00:00:00.644,-0.000583648681640625,0.00152778625488281,0.0059967041015625,0,
00:00:00.648,-0.000566482543945313,0.00155067443847656,0.00600242614746094,0,
00:00:00.652,-0.000577926635742188,0.00157356262207031,0.00597953796386719,0,
00:00:00.656,-0.000600814819335938,0.00152206420898438,0.00597953796386719,0,
00:00:00.66,-0.00057220458984375,0.00151634216308594,0.00597953796386719,0,
00:00:00.664,-0.00054931640625,0.00153923034667969,0.00599098205566406,0,
00:00:00.668,-0.000583648681640625,0.00153350830078125,0.00597953796386719,0,
00:00:00.672,-0.0005950927734375,0.00151634216308594,0.00597953796386719,0,
00:00:00.676,-0.000600814819335938,0.00149345397949219,0.00596237182617188,0,
00:00:00.68,-0.000583648681640625,0.0015106201171875,0.00596237182617188,0,
00:00:00.684,-0.000577926635742188,0.00152206420898438,0.00596809387207031,0,
00:00:00.688,-0.000560760498046875,0.00155067443847656,0.00596237182617188,0,
00:00:00.692,-0.000566482543945313,0.00156211853027344,0.005950927734375,0,
00:00:00.696,-0.000566482543945313,0.00155067443847656,0.005950927734375,0,
00:00:00.7,-0.00054931640625,0.001556396484375,0.00595664978027344,0,
00:00:00.704,-0.000560760498046875,0.001556396484375,0.00593948364257813,0,
00:00:00.708,-0.00054931640625,0.00156211853027344,0.00595664978027344,0,
00:00:00.712,-0.000532150268554688,0.00157928466796875,0.00595664978027344,0,
00:00:00.716,-0.000577926635742188,0.00154495239257813,0.00592803955078125,0,
00:00:00.72,-0.000583648681640625,0.00152778625488281,0.00592231750488281,0,
00:00:00.724,-0.000577926635742188,0.00151634216308594,0.00591659545898438,0,
00:00:00.728,-0.000566482543945313,0.00151634216308594,0.00591659545898438,0,
00:00:00.732,-0.000560760498046875,0.0015106201171875,0.00591659545898438,0,
00:00:00.736,-0.000560760498046875,0.00150489807128906,0.00591087341308594,0,
00:00:00.74,-0.000555038452148438,0.0015106201171875,0.00589942932128906,0,
00:00:00.744,-0.000537872314453125,0.001556396484375,0.00588798522949219,0,
00:00:00.748,-0.000543594360351563,0.001556396484375,0.00587081909179688,0,
00:00:00.752,-0.00054931640625,0.00152778625488281,0.00587081909179688,0,
00:00:00.756,-0.000514984130859375,0.00156211853027344,0.00587654113769531,0,
00:00:00.76,-0.000497817993164063,0.00159645080566406,0.005859375,0,
00:00:00.764,-0.000555038452148438,0.00153350830078125,0.00586509704589844,0,
00:00:00.768,-0.00057220458984375,0.00150489807128906,0.00584793090820313,0,
00:00:00.772,-0.000560760498046875,0.00151634216308594,0.00584793090820313,0,
00:00:00.776,-0.000543594360351563,0.00154495239257813,0.00582504272460938,0,
00:00:00.78,-0.00054931640625,0.00155067443847656,0.00581932067871094,0,
00:00:00.784,-0.000560760498046875,0.001556396484375,0.0058135986328125,0,
00:00:00.788,-0.000560760498046875,0.00157356262207031,0.0058135986328125,0,
00:00:00.792,-0.00054931640625,0.00157928466796875,0.0058135986328125,0,
00:00:00.796,-0.000555038452148438,0.00156784057617188,0.00579643249511719,0,
00:00:00.8,-0.000537872314453125,0.00157928466796875,0.00579643249511719,0,
00:00:00.804,-0.00052642822265625,0.00160789489746094,0.00579071044921875,0,
00:00:00.808,-0.000520706176757813,0.00162506103515625,0.00578498840332031,0,
00:00:00.812,-0.000520706176757813,0.00161933898925781,0.00577926635742188,0,
00:00:00.816,-0.000520706176757813,0.00161933898925781,0.005767822265625,0,
00:00:00.82,-0.0005035400390625,0.00164794921875,0.00576210021972656,0,
00:00:00.824,-0.000452041625976563,0.00171089172363281,0.00576210021972656,0,
00:00:00.828,-0.000457763671875,0.00169944763183594,0.00575637817382813,0,
00:00:00.832,-0.000543594360351563,0.00161361694335938,0.0057220458984375,0,
00:00:00.836,-0.000543594360351563,0.00162506103515625,0.00572776794433594,0,
00:00:00.84,-0.00052642822265625,0.00164222717285156,0.00572776794433594,0,
00:00:00.844,-0.000514984130859375,0.00165939331054688,0.00571632385253906,0,
00:00:00.848,-0.000486373901367188,0.00171661376953125,0.00570487976074219,0,
00:00:00.852,-0.000463485717773438,0.00175094604492188,0.00568199157714844,0,
00:00:00.856,-0.000497817993164063,0.00161933898925781,0.00568771362304688,0,
00:00:00.86,-0.0005035400390625,0.00161361694335938,0.00568199157714844,0,
00:00:00.864,-0.000486373901367188,0.00166511535644531,0.00567054748535156,0,
00:00:00.868,-0.00048065185546875,0.00166511535644531,0.00567054748535156,0,
00:00:00.872,-0.000492095947265625,0.00167655944824219,0.00567054748535156,0,
00:00:00.876,-0.000452041625976563,0.00169944763183594,0.00565338134765625,0,
00:00:00.88,-0.000474929809570313,0.00169944763183594,0.00564765930175781,0,
00:00:00.884,-0.000486373901367188,0.00171089172363281,0.00564193725585938,0,
00:00:00.888,-0.00048065185546875,0.00173377990722656,0.00562477111816406,0,
00:00:00.892,-0.000452041625976563,0.00176239013671875,0.00561332702636719,0,
00:00:00.896,-0.000429153442382813,0.00177383422851563,0.00560760498046875,0,
00:00:00.9,-0.00043487548828125,0.00176239013671875,0.00560760498046875,0,
00:00:00.904,-0.00043487548828125,0.00176811218261719,0.00560760498046875,0,
00:00:00.908,-0.000440597534179688,0.00175666809082031,0.00559616088867188,0,
00:00:00.912,-0.000423431396484375,0.00177955627441406,0.005584716796875,0,
00:00:00.916,-0.000394821166992188,0.0018310546875,0.00557899475097656,0,
00:00:00.92,-0.000400543212890625,0.00179672241210938,0.00557899475097656,0,
00:00:00.924,-0.0004119873046875,0.00176811218261719,0.00556182861328125,0,
00:00:00.928,-0.000383377075195313,0.00177383422851563,0.00555610656738281,0,
00:00:00.932,-0.000360488891601563,0.00180816650390625,0.00554466247558594,0,
00:00:00.936,-0.000354766845703125,0.00181388854980469,0.0055389404296875,0,
00:00:00.94,-0.000377655029296875,0.00181388854980469,0.00552749633789063,0,
00:00:00.944,-0.00038909912109375,0.00177383422851563,0.00551033020019531,0,
00:00:00.948,-0.000394821166992188,0.00177383422851563,0.00552749633789063,0,
00:00:00.952,-0.0003662109375,0.00180816650390625,0.00551605224609375,0,
00:00:00.956,-0.00034332275390625,0.00184249877929688,0.00550460815429688,0,
00:00:00.96,-0.000331878662109375,0.00185394287109375,0.00548744201660156,0,
00:00:00.964,-0.000349044799804688,0.00179672241210938,0.00548171997070313,0,
00:00:00.968,-0.000354766845703125,0.00179672241210938,0.00548171997070313,0,
00:00:00.972,-0.0003204345703125,0.00185394287109375,0.00547599792480469,0,
00:00:00.976,-0.00029754638671875,0.00185394287109375,0.00545883178710938,0,
00:00:00.98,-0.000303268432617188,0.00184822082519531,0.00545310974121094,0,
00:00:00.984,-0.000303268432617188,0.00185966491699219,0.00544166564941406,0,
00:00:00.988,-0.000326156616210938,0.00181388854980469,0.00543022155761719,0,
00:00:00.992,-0.000303268432617188,0.0018310546875,0.00542449951171875,0,
00:00:00.996,-0.000291824340820313,0.00183677673339844,0.00541877746582031,0,
00:00:01,-0.000274658203125,0.00184822082519531,0.00541305541992188,0,
00:00:01.004,-0.000257492065429688,0.00185966491699219,0.00541305541992188,0,
00:00:01.008,-0.000257492065429688,0.00185966491699219,0.005401611328125,0,
00:00:01.012,-0.000246047973632813,0.00188827514648438,0.00537872314453125,0,
00:00:01.016,-0.000234603881835938,0.00188827514648438,0.00537300109863281,0,
00:00:01.02,-0.0002288818359375,0.00188255310058594,0.00536155700683594,0,
00:00:01.024,-0.000223159790039063,0.00188827514648438,0.00537300109863281,0,
00:00:01.028,-0.000240325927734375,0.00185966491699219,0.00537872314453125,0,
00:00:01.032,-0.00020599365234375,0.00188827514648438,0.0053558349609375,0,
00:00:01.036,-0.000240325927734375,0.00187110900878906,0.00532722473144531,0,
00:00:01.04,-0.000246047973632813,0.00184822082519531,0.00533294677734375,0,
00:00:01.044,-0.000257492065429688,0.00182533264160156,0.00532150268554688,0,
00:00:01.048,-0.000246047973632813,0.00184249877929688,0.00532722473144531,0,
00:00:01.052,-0.0002288818359375,0.00184822082519531,0.00532150268554688,0,
00:00:01.056,-0.000223159790039063,0.00183677673339844,0.00531005859375,0,
00:00:01.06,-0.000223159790039063,0.00181388854980469,0.00531005859375,0,
00:00:01.064,-0.00020599365234375,0.00182533264160156,0.00529861450195313,0,
00:00:01.068,-0.000177383422851563,0.00187110900878906,0.00528144836425781,0,
00:00:01.072,-0.000217437744140625,0.00185966491699219,0.00527572631835938,0,
00:00:01.076,-0.000246047973632813,0.00182533264160156,0.00525856018066406,0,
00:00:01.08,-0.000234603881835938,0.00183677673339844,0.00525283813476563,0,
00:00:01.084,-0.000234603881835938,0.0018310546875,0.00523567199707031,0,
00:00:01.088,-0.000223159790039063,0.0018310546875,0.00522994995117188,0,
00:00:01.092,-0.000217437744140625,0.00184249877929688,0.00522422790527344,0,
00:00:01.096,-0.00020599365234375,0.00184822082519531,0.00521278381347656,0,
00:00:01.1,-0.000211715698242188,0.00181388854980469,0.00521278381347656,0,
00:00:01.104,-0.0002288818359375,0.00181388854980469,0.00522994995117188,0,
00:00:01.108,-0.000223159790039063,0.00181388854980469,0.005218505859375,0,
00:00:01.112,-0.000217437744140625,0.0018310546875,0.00519561767578125,0,
00:00:01.116,-0.00020599365234375,0.00184249877929688,0.00518989562988281,0,
00:00:01.12,-0.000194549560546875,0.0018310546875,0.00518417358398438,0,
00:00:01.124,-0.000246047973632813,0.00177383422851563,0.00516700744628906,0,
00:00:01.128,-0.000257492065429688,0.00175666809082031,0.00513839721679688,0,
00:00:01.132,-0.000240325927734375,0.00179100036621094,0.00514411926269531,0,
00:00:01.136,-0.000217437744140625,0.0018310546875,0.00515556335449219,0,
00:00:01.14,-0.00020599365234375,0.0018310546875,0.00513267517089844,0,
00:00:01.144,-0.000211715698242188,0.00182533264160156,0.00513267517089844,0,
00:00:01.148,-0.000240325927734375,0.00181388854980469,0.005126953125,0,
00:00:01.152,-0.000234603881835938,0.00184822082519531,0.00510978698730469,0,
00:00:01.156,-0.000223159790039063,0.00188255310058594,0.00510978698730469,0,
00:00:01.16,-0.000246047973632813,0.00184822082519531,0.00509262084960938,0,
00:00:01.164,-0.000211715698242188,0.00189399719238281,0.00510406494140625,0,
00:00:01.168,-0.000234603881835938,0.00191116333007813,0.00509834289550781,0,
00:00:01.172,-0.000326156616210938,0.00182533264160156,0.0050811767578125,0,
00:00:01.176,-0.000303268432617188,0.0018768310546875,0.00507545471191406,0,
00:00:01.18,-0.000286102294921875,0.001922607421875,0.00507545471191406,0,
00:00:01.184,-0.000268936157226563,0.00192832946777344,0.00505828857421875,0,
00:00:01.188,-0.000286102294921875,0.00189971923828125,0.00505256652832031,0,
00:00:01.192,-0.00029754638671875,0.00189399719238281,0.00504684448242188,0,
00:00:01.196,-0.000303268432617188,0.00189971923828125,0.00505256652832031,0,
00:00:01.2,-0.00029754638671875,0.001922607421875,0.00504112243652344,0,
00:00:01.204,-0.00029754638671875,0.00193977355957031,0.005035400390625,0,
00:00:01.208,-0.000286102294921875,0.00193405151367188,0.00501823425292969,0,
00:00:01.212,-0.00029754638671875,0.00193977355957031,0.00502967834472656,0,
00:00:01.216,-0.00029754638671875,0.00195693969726563,0.00502967834472656,0,
00:00:01.22,-0.0003204345703125,0.001922607421875,0.00501251220703125,0,
00:00:01.224,-0.000314712524414063,0.00192832946777344,0.00500679016113281,0,
00:00:01.228,-0.000308990478515625,0.00195693969726563,0.00501251220703125,0,
00:00:01.232,-0.000308990478515625,0.0019683837890625,0.00500106811523438,0,
00:00:01.236,-0.000280380249023438,0.00198554992675781,0.00497817993164063,0,
00:00:01.24,-0.000303268432617188,0.0019683837890625,0.00496101379394531,0,
00:00:01.244,-0.000354766845703125,0.001922607421875,0.00496101379394531,0,
00:00:01.248,-0.000308990478515625,0.00199127197265625,0.00497245788574219,0,
00:00:01.252,-0.000303268432617188,0.00201988220214844,0.00496673583984375,0,
00:00:01.256,-0.000308990478515625,0.00200271606445313,0.00495529174804688,0,
00:00:01.26,-0.000268936157226563,0.00204277038574219,0.00494384765625,0,
00:00:01.264,-0.0003204345703125,0.00200271606445313,0.00493812561035156,0,
00:00:01.268,-0.000337600708007813,0.0019683837890625,0.00494956970214844,0,
00:00:01.272,-0.000326156616210938,0.00199127197265625,0.00494956970214844,0,
00:00:01.276,-0.000308990478515625,0.00200843811035156,0.00494384765625,0,
00:00:01.28,-0.000291824340820313,0.00201416015625,0.00493812561035156,0,
00:00:01.284,-0.000291824340820313,0.00201988220214844,0.00493812561035156,0,
00:00:01.288,-0.0003204345703125,0.00201416015625,0.00492668151855469,0,
00:00:01.292,-0.000314712524414063,0.00203132629394531,0.00491523742675781,0,
00:00:01.296,-0.000314712524414063,0.00204277038574219,0.00491523742675781,0,
00:00:01.3,-0.000308990478515625,0.00203132629394531,0.00491523742675781,0,
00:00:01.304,-0.000314712524414063,0.00200843811035156,0.00490951538085938,0,
00:00:01.308,-0.000308990478515625,0.00205421447753906,0.00490379333496094,0,
00:00:01.312,-0.000303268432617188,0.00208854675292969,0.00486946105957031,0,
00:00:01.316,-0.000349044799804688,0.00200843811035156,0.00485801696777344,0,
00:00:01.32,-0.000354766845703125,0.00201988220214844,0.00487518310546875,0,
00:00:01.324,-0.000337600708007813,0.00203704833984375,0.00488090515136719,0,
00:00:01.328,-0.000331878662109375,0.00205421447753906,0.00485801696777344,0,
00:00:01.332,-0.000326156616210938,0.00207138061523438,0.00484657287597656,0,
00:00:01.336,-0.000326156616210938,0.00205421447753906,0.00484085083007813,0,
00:00:01.34,-0.000337600708007813,0.00207138061523438,0.00483512878417969,0,
00:00:01.344,-0.00034332275390625,0.00207710266113281,0.00483512878417969,0,
00:00:01.348,-0.000349044799804688,0.00208282470703125,0.00483512878417969,0,
00:00:01.352,-0.0003662109375,0.00208854675292969,0.00482940673828125,0,
00:00:01.356,-0.000360488891601563,0.002105712890625,0.00482940673828125,0,
00:00:01.36,-0.000354766845703125,0.002105712890625,0.00482368469238281,0,
00:00:01.364,-0.000337600708007813,0.00211143493652344,0.00479507446289063,0,
00:00:01.368,-0.000371932983398438,0.00209426879882813,0.00478363037109375,0,
00:00:01.372,-0.000394821166992188,0.00208854675292969,0.00481224060058594,0,
00:00:01.376,-0.000394821166992188,0.00208282470703125,0.0048065185546875,0,
00:00:01.38,-0.000383377075195313,0.00209426879882813,0.00478363037109375,0,
00:00:01.384,-0.000377655029296875,0.00211143493652344,0.00478363037109375,0,
00:00:01.388,-0.000377655029296875,0.002105712890625,0.00477218627929688,0,
00:00:01.392,-0.000383377075195313,0.00208854675292969,0.0047607421875,0,
00:00:01.396,-0.000394821166992188,0.00209426879882813,0.00476646423339844,0,
00:00:01.4,-0.00038909912109375,0.00211143493652344,0.00475502014160156,0,
00:00:01.404,-0.0003662109375,0.00212860107421875,0.00475502014160156,0,
00:00:01.408,-0.000349044799804688,0.0021514892578125,0.00475502014160156,0,
00:00:01.412,-0.000377655029296875,0.002105712890625,0.00474929809570313,0,
00:00:01.416,-0.0004119873046875,0.0020599365234375,0.00474357604980469,0,
00:00:01.42,-0.000406265258789063,0.00204277038574219,0.00474357604980469,0,
00:00:01.424,-0.000406265258789063,0.00203132629394531,0.00472640991210938,0,
00:00:01.428,-0.000394821166992188,0.00204849243164063,0.00472640991210938,0,
00:00:01.432,-0.000383377075195313,0.00206565856933594,0.00470352172851563,0,
00:00:01.436,-0.000377655029296875,0.00206565856933594,0.00470352172851563,0,
00:00:01.44,-0.000360488891601563,0.00208282470703125,0.00470352172851563,0,
00:00:01.444,-0.000337600708007813,0.00208854675292969,0.00470352172851563,0,
00:00:01.448,-0.000349044799804688,0.0020599365234375,0.00470352172851563,0,
00:00:01.452,-0.000349044799804688,0.00204277038574219,0.00469779968261719,0,
00:00:01.456,-0.00034332275390625,0.0020599365234375,0.00469779968261719,0,
00:00:01.46,-0.0003204345703125,0.00207710266113281,0.00470352172851563,0,
00:00:01.464,-0.00034332275390625,0.0020599365234375,0.00468635559082031,0,
00:00:01.468,-0.00034332275390625,0.00208282470703125,0.00467491149902344,0,
00:00:01.472,-0.000349044799804688,0.00209426879882813,0.004669189453125,0,
00:00:01.476,-0.00038909912109375,0.00206565856933594,0.004669189453125,0,
00:00:01.48,-0.000394821166992188,0.00204277038574219,0.00465774536132813,0,
00:00:01.484,-0.00038909912109375,0.00207138061523438,0.00465202331542969,0,
00:00:01.488,-0.0003662109375,0.00209999084472656,0.00465774536132813,0,
00:00:01.492,-0.000354766845703125,0.00213432312011719,0.00464630126953125,0,
00:00:01.496,-0.0003662109375,0.00211143493652344,0.00465202331542969,0,
00:00:01.5,-0.000377655029296875,0.00208854675292969,0.00465202331542969,0,
00:00:01.504,-0.00038909912109375,0.00209426879882813,0.00464630126953125,0,
00:00:01.508,-0.000394821166992188,0.002105712890625,0.00465202331542969,0,
00:00:01.512,-0.000383377075195313,0.00213432312011719,0.00463485717773438,0,
00:00:01.516,-0.000394821166992188,0.00212860107421875,0.00461196899414063,0,
00:00:01.52,-0.000400543212890625,0.00213432312011719,0.00463485717773438,0,
00:00:01.524,-0.000423431396484375,0.00212860107421875,0.00464630126953125,0,
00:00:01.528,-0.000446319580078125,0.00209999084472656,0.00464057922363281,0,
00:00:01.532,-0.000440597534179688,0.00211143493652344,0.0046234130859375,0,
00:00:01.536,-0.000429153442382813,0.00211715698242188,0.00460052490234375,0,
00:00:01.54,-0.000429153442382813,0.002105712890625,0.00458335876464844,0,
00:00:01.544,-0.000423431396484375,0.00211715698242188,0.00457191467285156,0,
00:00:01.548,-0.000429153442382813,0.002105712890625,0.00457191467285156,0,
00:00:01.552,-0.000429153442382813,0.002105712890625,0.00456047058105469,0,
00:00:01.556,-0.000417709350585938,0.00211715698242188,0.00455474853515625,0,
00:00:01.56,-0.000406265258789063,0.00214576721191406,0.00455474853515625,0,
00:00:01.564,-0.000400543212890625,0.00213432312011719,0.00456047058105469,0,
00:00:01.568,-0.0004119873046875,0.00211715698242188,0.00454902648925781,0,
00:00:01.572,-0.0004119873046875,0.00208854675292969,0.00454902648925781,0,
00:00:01.576,-0.000400543212890625,0.002105712890625,0.00454330444335938,0,
00:00:01.58,-0.0004119873046875,0.00213432312011719,0.00454330444335938,0,
00:00:01.584,-0.00038909912109375,0.00211143493652344,0.00453758239746094,0,
00:00:01.588,-0.000406265258789063,0.00211715698242188,0.00454330444335938,0,
00:00:01.592,-0.000406265258789063,0.00212860107421875,0.00454902648925781,0,
00:00:01.596,-0.0004119873046875,0.00211715698242188,0.00452613830566406,0,
00:00:01.6,-0.000417709350585938,0.00208854675292969,0.00452613830566406,0,
00:00:01.604,-0.0004119873046875,0.00209999084472656,0.00452613830566406,0,
00:00:01.608,-0.000394821166992188,0.00214004516601563,0.0045318603515625,0,
00:00:01.612,-0.000383377075195313,0.00212287902832031,0.0045318603515625,0,
00:00:01.616,-0.000383377075195313,0.002105712890625,0.00452613830566406,0,
00:00:01.62,-0.000383377075195313,0.00207138061523438,0.0045318603515625,0,
00:00:01.624,-0.000394821166992188,0.00207710266113281,0.0045318603515625,0,
00:00:01.628,-0.000383377075195313,0.00208282470703125,0.00451469421386719,0,
00:00:01.632,-0.0003662109375,0.00208854675292969,0.00452041625976563,0,
00:00:01.636,-0.000354766845703125,0.00209999084472656,0.00452613830566406,0,
00:00:01.64,-0.000354766845703125,0.00207710266113281,0.00452041625976563,0,
00:00:01.644,-0.000354766845703125,0.00207138061523438,0.00452613830566406,0,
00:00:01.648,-0.000360488891601563,0.00207710266113281,0.0045318603515625,0,
00:00:01.652,-0.0003662109375,0.00207138061523438,0.00453758239746094,0,
00:00:01.656,-0.0003662109375,0.00206565856933594,0.00453758239746094,0,
00:00:01.66,-0.000349044799804688,0.00208854675292969,0.0045318603515625,0,
00:00:01.664,-0.000349044799804688,0.00211143493652344,0.00454330444335938,0,
00:00:01.668,-0.000354766845703125,0.00209426879882813,0.00454330444335938,0,
00:00:01.672,-0.000377655029296875,0.0020599365234375,0.00454330444335938,0,
00:00:01.676,-0.000394821166992188,0.00204849243164063,0.00452613830566406,0,
00:00:01.68,-0.000371932983398438,0.0020599365234375,0.00452613830566406,0,
00:00:01.684,-0.0003662109375,0.00206565856933594,0.00452041625976563,0,
00:00:01.688,-0.000354766845703125,0.0020599365234375,0.00452613830566406,0,
00:00:01.692,-0.0003662109375,0.00206565856933594,0.00451469421386719,0,
00:00:01.696,-0.0003662109375,0.00207138061523438,0.00450897216796875,0,
00:00:01.7,-0.00034332275390625,0.00206565856933594,0.00452613830566406,0,
00:00:01.704,-0.000354766845703125,0.00206565856933594,0.00452613830566406,0,
00:00:01.708,-0.000349044799804688,0.00207138061523438,0.00452613830566406,0,
00:00:01.712,-0.000326156616210938,0.00208854675292969,0.00452613830566406,0,
00:00:01.716,-0.000354766845703125,0.00205421447753906,0.00452041625976563,0,
00:00:01.72,-0.000360488891601563,0.00203704833984375,0.00450325012207031,0,
00:00:01.724,-0.00034332275390625,0.00205421447753906,0.00452041625976563,0,
00:00:01.728,-0.000326156616210938,0.00208854675292969,0.00452613830566406,0,
00:00:01.732,-0.0003204345703125,0.00208854675292969,0.00451469421386719,0,
00:00:01.736,-0.000337600708007813,0.0020599365234375,0.00452041625976563,0,
00:00:01.74,-0.000354766845703125,0.00202560424804688,0.0045318603515625,0,
00:00:01.744,-0.000354766845703125,0.00203132629394531,0.00452613830566406,0,
00:00:01.748,-0.000349044799804688,0.00203704833984375,0.00452041625976563,0,
00:00:01.752,-0.000337600708007813,0.00204849243164063,0.00451469421386719,0,
00:00:01.756,-0.000337600708007813,0.00204849243164063,0.00451469421386719,0,
00:00:01.76,-0.000337600708007813,0.00204277038574219,0.00451469421386719,0,
00:00:01.764,-0.00034332275390625,0.00204849243164063,0.0045318603515625,0,
00:00:01.768,-0.00034332275390625,0.00203132629394531,0.00452613830566406,0,
00:00:01.772,-0.00034332275390625,0.00201988220214844,0.00452041625976563,0,
00:00:01.776,-0.000331878662109375,0.00203132629394531,0.00451469421386719,0,
00:00:01.78,-0.000349044799804688,0.00203704833984375,0.00450897216796875,0,
00:00:01.784,-0.00034332275390625,0.00204277038574219,0.00450897216796875,0,
00:00:01.788,-0.000326156616210938,0.0020599365234375,0.00451469421386719,0,
00:00:01.792,-0.000314712524414063,0.00204277038574219,0.00450897216796875,0,
00:00:01.796,-0.000331878662109375,0.00200271606445313,0.00450897216796875,0,
00:00:01.8,-0.00034332275390625,0.00200271606445313,0.00452613830566406,0,
00:00:01.804,-0.00034332275390625,0.00203132629394531,0.0045318603515625,0,
00:00:01.808,-0.0003204345703125,0.00204849243164063,0.00451469421386719,0,
00:00:01.812,-0.000331878662109375,0.00203132629394531,0.00452041625976563,0,
00:00:01.816,-0.000349044799804688,0.00203132629394531,0.0045318603515625,0,
00:00:01.82,-0.000326156616210938,0.00204277038574219,0.00452041625976563,0,
00:00:01.824,-0.000354766845703125,0.00200271606445313,0.0045318603515625,0,
00:00:01.828,-0.000349044799804688,0.00200843811035156,0.00454330444335938,0,
00:00:01.832,-0.000331878662109375,0.0020599365234375,0.00454902648925781,0,
00:00:01.836,-0.0003204345703125,0.00206565856933594,0.00454902648925781,0,
00:00:01.84,-0.000326156616210938,0.0020599365234375,0.00455474853515625,0,
00:00:01.844,-0.000331878662109375,0.00206565856933594,0.00454902648925781,0,
00:00:01.848,-0.000314712524414063,0.00207138061523438,0.00454902648925781,0,
00:00:01.852,-0.000314712524414063,0.00206565856933594,0.00456047058105469,0,
00:00:01.856,-0.000314712524414063,0.00208282470703125,0.00456047058105469,0,
00:00:01.86,-0.000337600708007813,0.00204277038574219,0.00456047058105469,0,
00:00:01.864,-0.000331878662109375,0.00204277038574219,0.00456619262695313,0,
00:00:01.868,-0.000314712524414063,0.00206565856933594,0.00457191467285156,0,
00:00:01.872,-0.000303268432617188,0.00206565856933594,0.00456619262695313,0,
00:00:01.876,-0.000286102294921875,0.00209426879882813,0.00457191467285156,0,
00:00:01.88,-0.00029754638671875,0.00211715698242188,0.00457763671875,0,
00:00:01.884,-0.00034332275390625,0.00202560424804688,0.00456047058105469,0,
00:00:01.888,-0.000337600708007813,0.00201988220214844,0.00458335876464844,0,
00:00:01.892,-0.000326156616210938,0.00201416015625,0.00458335876464844,0,
00:00:01.896,-0.00034332275390625,0.00199699401855469,0.00459480285644531,0,
00:00:01.9,-0.000326156616210938,0.00203704833984375,0.00460052490234375,0,
00:00:01.904,-0.000308990478515625,0.00207138061523438,0.00461196899414063,0,
00:00:01.908,-0.000303268432617188,0.00207138061523438,0.00461196899414063,0,
00:00:01.912,-0.00029754638671875,0.00205421447753906,0.00461769104003906,0,
00:00:01.916,-0.000303268432617188,0.00207138061523438,0.00461196899414063,0,
00:00:01.92,-0.000303268432617188,0.0020599365234375,0.0046234130859375,0,
00:00:01.924,-0.000291824340820313,0.00207138061523438,0.00461769104003906,0,
00:00:01.928,-0.000274658203125,0.00208854675292969,0.00461196899414063,0,
00:00:01.932,-0.000274658203125,0.00208854675292969,0.00461769104003906,0,
00:00:01.936,-0.000280380249023438,0.0020599365234375,0.00461769104003906,0,
00:00:01.94,-0.000286102294921875,0.00206565856933594,0.0046234130859375,0,
00:00:01.944,-0.000274658203125,0.00205421447753906,0.00462913513183594,0,
00:00:01.948,-0.000291824340820313,0.00204849243164063,0.00462913513183594,0,
00:00:01.952,-0.000257492065429688,0.002105712890625,0.0046234130859375,0,
00:00:01.956,-0.00025177001953125,0.00211715698242188,0.00464057922363281,0,
00:00:01.96,-0.000286102294921875,0.00207138061523438,0.00462913513183594,0,
00:00:01.964,-0.00029754638671875,0.00204277038574219,0.00462913513183594,0,
00:00:01.968,-0.000268936157226563,0.00207138061523438,0.00463485717773438,0,
00:00:01.972,-0.000274658203125,0.00208282470703125,0.00464057922363281,0,
00:00:01.976,-0.000303268432617188,0.00204277038574219,0.00463485717773438,0,
00:00:01.98,-0.000303268432617188,0.00203704833984375,0.00464057922363281,0,
00:00:01.984,-0.000303268432617188,0.00205421447753906,0.00465202331542969,0,
00:00:01.988,-0.000291824340820313,0.0020599365234375,0.00465774536132813,0,
00:00:01.992,-0.000291824340820313,0.00205421447753906,0.00465202331542969,0,
00:00:01.996,-0.000303268432617188,0.00204277038574219,0.00465774536132813,0,
00:00:02,-0.000291824340820313,0.00206565856933594,0.00466346740722656,0,
00:00:02.004,-0.000280380249023438,0.00209426879882813,0.00468063354492188,0,
00:00:02.008,-0.000280380249023438,0.00208282470703125,0.00466346740722656,0,
00:00:02.012,-0.000286102294921875,0.00207138061523438,0.00467491149902344,0,
00:00:02.016,-0.000280380249023438,0.00207710266113281,0.00467491149902344,0,
00:00:02.02,-0.000263214111328125,0.00209426879882813,0.004669189453125,0,
00:00:02.024,-0.000246047973632813,0.00212287902832031,0.004669189453125,0,
00:00:02.028,-0.000246047973632813,0.00212287902832031,0.00466346740722656,0,
00:00:02.032,-0.000274658203125,0.00207138061523438,0.00467491149902344,0,
00:00:02.036,-0.000291824340820313,0.00203704833984375,0.00466346740722656,0,
00:00:02.04,-0.000274658203125,0.0020599365234375,0.00467491149902344,0,
00:00:02.044,-0.000257492065429688,0.00207138061523438,0.00468063354492188,0,
00:00:02.048,-0.000268936157226563,0.00209426879882813,0.00468635559082031,0,
00:00:02.052,-0.000280380249023438,0.00208282470703125,0.00469779968261719,0,
00:00:02.056,-0.000286102294921875,0.00207138061523438,0.00469207763671875,0,
00:00:02.06,-0.000291824340820313,0.00207710266113281,0.00469779968261719,0,
00:00:02.064,-0.000286102294921875,0.00205421447753906,0.00470924377441406,0,
00:00:02.068,-0.000280380249023438,0.00207138061523438,0.00470352172851563,0,
00:00:02.072,-0.00029754638671875,0.00206565856933594,0.0047149658203125,0,
00:00:02.076,-0.000280380249023438,0.00208282470703125,0.0047149658203125,0,
00:00:02.08,-0.000263214111328125,0.00207710266113281,0.00472068786621094,0,
00:00:02.084,-0.00025177001953125,0.00209999084472656,0.00472640991210938,0,
00:00:02.088,-0.000211715698242188,0.0021514892578125,0.0047149658203125,0,
00:00:02.092,-0.000263214111328125,0.00209999084472656,0.00470924377441406,0,
00:00:02.096,-0.00029754638671875,0.00203704833984375,0.0047149658203125,0,
00:00:02.1,-0.000274658203125,0.00207138061523438,0.0047149658203125,0,
00:00:02.104,-0.000274658203125,0.00208282470703125,0.00472068786621094,0,
00:00:02.108,-0.000274658203125,0.00207138061523438,0.00473785400390625,0,
00:00:02.112,-0.000257492065429688,0.00207710266113281,0.00473785400390625,0,
00:00:02.116,-0.000263214111328125,0.00209426879882813,0.00474929809570313,0,
00:00:02.12,-0.000268936157226563,0.00207138061523438,0.00474357604980469,0,
00:00:02.124,-0.000263214111328125,0.00207710266113281,0.00473785400390625,0,
00:00:02.128,-0.000263214111328125,0.00208854675292969,0.00477218627929688,0,
00:00:02.132,-0.000257492065429688,0.00208854675292969,0.00477790832519531,0,
00:00:02.136,-0.000257492065429688,0.00209426879882813,0.00476646423339844,0,
00:00:02.14,-0.000268936157226563,0.00208282470703125,0.0047607421875,0,
00:00:02.144,-0.000280380249023438,0.00206565856933594,0.00477218627929688,0,
00:00:02.148,-0.000257492065429688,0.00208854675292969,0.00477790832519531,0,
00:00:02.152,-0.000257492065429688,0.00207138061523438,0.00477218627929688,0,
00:00:02.156,-0.000257492065429688,0.0020599365234375,0.00478935241699219,0,
00:00:02.16,-0.000257492065429688,0.00207710266113281,0.0048065185546875,0,
00:00:02.164,-0.000257492065429688,0.00208282470703125,0.00481224060058594,0,
00:00:02.168,-0.000246047973632813,0.00208282470703125,0.0048065185546875,0,
00:00:02.172,-0.000246047973632813,0.00206565856933594,0.0048065185546875,0,
00:00:02.176,-0.000240325927734375,0.00208854675292969,0.00481224060058594,0,
00:00:02.18,-0.000223159790039063,0.00211143493652344,0.00481796264648438,0,
00:00:02.184,-0.000246047973632813,0.00208854675292969,0.00482940673828125,0,
00:00:02.188,-0.000240325927734375,0.00207710266113281,0.00482940673828125,0,
00:00:02.192,-0.000234603881835938,0.00208854675292969,0.00482368469238281,0,
00:00:02.196,-0.000246047973632813,0.00207138061523438,0.00482940673828125,0,
00:00:02.2,-0.000257492065429688,0.00204849243164063,0.00482940673828125,0,
00:00:02.204,-0.0002288818359375,0.00207710266113281,0.00484085083007813,0,
00:00:02.208,-0.000223159790039063,0.00209426879882813,0.00482940673828125,0,
00:00:02.212,-0.000246047973632813,0.00206565856933594,0.00484657287597656,0,
00:00:02.216,-0.000223159790039063,0.00209426879882813,0.00484657287597656,0,
00:00:02.22,-0.000240325927734375,0.00206565856933594,0.00486373901367188,0,
00:00:02.224,-0.00025177001953125,0.00205421447753906,0.00487518310546875,0,
00:00:02.228,-0.000223159790039063,0.00207710266113281,0.00489234924316406,0,
00:00:02.232,-0.000217437744140625,0.00209426879882813,0.00490379333496094,0,
00:00:02.236,-0.000234603881835938,0.00207138061523438,0.00489234924316406,0,
00:00:02.24,-0.000246047973632813,0.00206565856933594,0.0048980712890625,0,
00:00:02.244,-0.000240325927734375,0.00207710266113281,0.00491523742675781,0,
00:00:02.248,-0.000217437744140625,0.002105712890625,0.00490951538085938,0,
00:00:02.252,-0.000217437744140625,0.00209999084472656,0.00492095947265625,0,
00:00:02.256,-0.0002288818359375,0.00208282470703125,0.00493240356445313,0,
00:00:02.26,-0.000234603881835938,0.00207710266113281,0.00494384765625,0,
00:00:02.264,-0.000217437744140625,0.00208854675292969,0.00495529174804688,0,
00:00:02.268,-0.00020599365234375,0.00209426879882813,0.00496673583984375,0,
00:00:02.272,-0.000200271606445313,0.002105712890625,0.00496673583984375,0,
00:00:02.276,-0.000217437744140625,0.00208854675292969,0.00497817993164063,0,
00:00:02.28,-0.000234603881835938,0.00205421447753906,0.00497245788574219,0,
00:00:02.284,-0.000211715698242188,0.00207710266113281,0.00497817993164063,0,
00:00:02.288,-0.000211715698242188,0.00207138061523438,0.00497817993164063,0,
00:00:02.292,-0.000223159790039063,0.00207138061523438,0.00497817993164063,0,
00:00:02.296,-0.000211715698242188,0.00209999084472656,0.00498390197753906,0,
00:00:02.3,-0.000217437744140625,0.00209999084472656,0.0049896240234375,0,
00:00:02.304,-0.00020599365234375,0.00209999084472656,0.00498390197753906,0,
00:00:02.308,-0.00020599365234375,0.00209999084472656,0.00498390197753906,0,
00:00:02.312,-0.000246047973632813,0.00204849243164063,0.0049896240234375,0,
00:00:02.316,-0.0002288818359375,0.00207138061523438,0.0049896240234375,0,
00:00:02.32,-0.000211715698242188,0.00209999084472656,0.0049896240234375,0,
00:00:02.324,-0.00020599365234375,0.00208854675292969,0.0049896240234375,0,
00:00:02.328,-0.000217437744140625,0.00207138061523438,0.00501251220703125,0,
00:00:02.332,-0.000223159790039063,0.00205421447753906,0.00500106811523438,0,
00:00:02.336,-0.000194549560546875,0.00209426879882813,0.00501823425292969,0,
00:00:02.34,-0.000194549560546875,0.00208854675292969,0.00502967834472656,0,
00:00:02.344,-0.000194549560546875,0.00209426879882813,0.00501823425292969,0,
00:00:02.348,-0.000200271606445313,0.00209426879882813,0.00501823425292969,0,
00:00:02.352,-0.000211715698242188,0.00208854675292969,0.00502395629882813,0,
00:00:02.356,-0.000223159790039063,0.00207710266113281,0.00502967834472656,0,
00:00:02.36,-0.000234603881835938,0.0020599365234375,0.00504112243652344,0,
00:00:02.364,-0.000234603881835938,0.00205421447753906,0.00504112243652344,0,
00:00:02.368,-0.0002288818359375,0.00204849243164063,0.00505256652832031,0,
00:00:02.372,-0.000211715698242188,0.0020599365234375,0.00505256652832031,0,
00:00:02.376,-0.00020599365234375,0.00209426879882813,0.00505256652832031,0,
00:00:02.38,-0.000223159790039063,0.00207138061523438,0.00506973266601563,0,
00:00:02.384,-0.000240325927734375,0.00204849243164063,0.00507545471191406,0,
00:00:02.388,-0.0002288818359375,0.00205421447753906,0.00508689880371094,0,
00:00:02.392,-0.000217437744140625,0.00207710266113281,0.00508689880371094,0,
00:00:02.396,-0.000148773193359375,0.00214004516601563,0.00509834289550781,0,
00:00:02.4,-0.00018310546875,0.00211715698242188,0.00508689880371094,0,
00:00:02.404,-0.000268936157226563,0.00201988220214844,0.00510406494140625,0,
00:00:02.408,-0.000263214111328125,0.00202560424804688,0.00510406494140625,0,
00:00:02.412,-0.000223159790039063,0.00206565856933594,0.00510978698730469,0,
00:00:02.416,-0.000200271606445313,0.00208282470703125,0.00512123107910156,0,
00:00:02.42,-0.000217437744140625,0.00206565856933594,0.005126953125,0,
00:00:02.424,-0.000223159790039063,0.00204277038574219,0.00513267517089844,0,
00:00:02.428,-0.00020599365234375,0.00204277038574219,0.005126953125,0,
00:00:02.432,-0.000200271606445313,0.00205421447753906,0.00513839721679688,0,
00:00:02.436,-0.00020599365234375,0.00204849243164063,0.00514984130859375,0,
00:00:02.44,-0.000188827514648438,0.00207138061523438,0.00516128540039063,0,
00:00:02.444,-0.000143051147460938,0.00209999084472656,0.0051727294921875,0,
00:00:02.448,-0.000177383422851563,0.00208854675292969,0.0051727294921875,0,
00:00:02.452,-0.000211715698242188,0.00207138061523438,0.00517845153808594,0,
00:00:02.456,-0.00018310546875,0.00209426879882813,0.00518417358398438,0,
00:00:02.46,-0.000177383422851563,0.00209426879882813,0.00518989562988281,0,
00:00:02.464,-0.00018310546875,0.00206565856933594,0.00518989562988281,0,
00:00:02.468,-0.000177383422851563,0.0020599365234375,0.00520133972167969,0,
00:00:02.472,-0.00018310546875,0.00207138061523438,0.00520706176757813,0,
00:00:02.476,-0.000177383422851563,0.00209426879882813,0.005218505859375,0,
00:00:02.48,-0.000154495239257813,0.00211143493652344,0.00522422790527344,0,
00:00:02.484,-0.000171661376953125,0.00209426879882813,0.00524139404296875,0,
00:00:02.488,-0.000177383422851563,0.00208854675292969,0.00523567199707031,0,
00:00:02.492,-0.000177383422851563,0.00208854675292969,0.00523567199707031,0,
00:00:02.496,-0.000165939331054688,0.00207710266113281,0.00524139404296875,0,
00:00:02.5,-0.000171661376953125,0.00206565856933594,0.00524139404296875,0,
00:00:02.504,-0.00018310546875,0.00203704833984375,0.00525856018066406,0,
00:00:02.508,-0.00016021728515625,0.00208854675292969,0.00527572631835938,0,
00:00:02.512,-0.00016021728515625,0.00209999084472656,0.00527572631835938,0,
00:00:02.516,-0.00016021728515625,0.00211143493652344,0.00527000427246094,0,
00:00:02.52,-0.000165939331054688,0.00209999084472656,0.00527572631835938,0,
00:00:02.524,-0.000177383422851563,0.00208854675292969,0.00529289245605469,0,
00:00:02.528,-0.00016021728515625,0.00209999084472656,0.00530433654785156,0,
00:00:02.532,-0.000154495239257813,0.00208854675292969,0.00530433654785156,0,
00:00:02.536,-0.00016021728515625,0.00207710266113281,0.00530433654785156,0,
00:00:02.54,-0.00016021728515625,0.00208282470703125,0.00529861450195313,0,
00:00:02.544,-0.000148773193359375,0.00209426879882813,0.00530433654785156,0,
00:00:02.548,-0.0001373291015625,0.00209999084472656,0.00531578063964844,0,
00:00:02.552,-0.0001373291015625,0.00209426879882813,0.00532150268554688,0,
00:00:02.556,-0.000131607055664063,0.00209999084472656,0.00533294677734375,0,
00:00:02.56,-0.000143051147460938,0.00208282470703125,0.00533866882324219,0,
00:00:02.564,-0.000148773193359375,0.00207138061523438,0.00533866882324219,0,
00:00:02.568,-0.00016021728515625,0.0020599365234375,0.00534439086914063,0,
00:00:02.572,-0.000143051147460938,0.00207138061523438,0.00535011291503906,0,
00:00:02.576,-0.000143051147460938,0.00207138061523438,0.00534439086914063,0,
00:00:02.58,-0.0001373291015625,0.00205421447753906,0.0053558349609375,0,
00:00:02.584,-0.000125885009765625,0.0020599365234375,0.00536727905273438,0,
00:00:02.588,-0.000120162963867188,0.00204849243164063,0.00537300109863281,0,
00:00:02.592,-0.000131607055664063,0.00203132629394531,0.00537300109863281,0,
00:00:02.596,-0.000108718872070313,0.00207138061523438,0.00539588928222656,0,
00:00:02.6,-9.72747802734375E-05,0.00206565856933594,0.00540733337402344,0,
00:00:02.604,-0.000102996826171875,0.00206565856933594,0.005401611328125,0,
00:00:02.608,-0.000120162963867188,0.00206565856933594,0.00540733337402344,0,
00:00:02.612,-0.000120162963867188,0.00206565856933594,0.00541877746582031,0,
00:00:02.616,-0.000120162963867188,0.00206565856933594,0.00542449951171875,0,
00:00:02.62,-0.000120162963867188,0.00206565856933594,0.00544166564941406,0,
00:00:02.624,-0.000125885009765625,0.00205421447753906,0.0054473876953125,0,
00:00:02.628,-0.0001373291015625,0.00204277038574219,0.00544166564941406,0,
00:00:02.632,-0.000120162963867188,0.0020599365234375,0.00545310974121094,0,
00:00:02.636,-0.000131607055664063,0.00203704833984375,0.00545310974121094,0,
00:00:02.64,-0.000131607055664063,0.00203704833984375,0.00545883178710938,0,
00:00:02.644,-0.000143051147460938,0.00203132629394531,0.00547599792480469,0,
00:00:02.648,-0.0001373291015625,0.00203704833984375,0.00547599792480469,0,
00:00:02.652,-0.000125885009765625,0.00204849243164063,0.00547599792480469,0,
00:00:02.656,-0.000125885009765625,0.00204277038574219,0.0054931640625,0,
00:00:02.66,-0.000131607055664063,0.00204849243164063,0.0054931640625,0,
00:00:02.664,-0.000143051147460938,0.00202560424804688,0.00549888610839844,0,
00:00:02.668,-0.000131607055664063,0.00203704833984375,0.00550460815429688,0,
00:00:02.672,-0.000120162963867188,0.0020599365234375,0.00551605224609375,0,
00:00:02.676,-0.00011444091796875,0.00205421447753906,0.00552749633789063,0,
00:00:02.68,-0.00016021728515625,0.00200843811035156,0.00551605224609375,0,
00:00:02.684,-0.000171661376953125,0.00201416015625,0.00551605224609375,0,
00:00:02.688,-0.000148773193359375,0.00204277038574219,0.00551605224609375,0,
00:00:02.692,-0.000148773193359375,0.00202560424804688,0.00553321838378906,0,
00:00:02.696,-0.0001373291015625,0.00203132629394531,0.0055389404296875,0,
00:00:02.7,-0.000131607055664063,0.00203704833984375,0.00555038452148438,0,
00:00:02.704,-0.000154495239257813,0.00202560424804688,0.00556182861328125,0,
00:00:02.708,-0.000148773193359375,0.00204277038574219,0.00556755065917969,0,
00:00:02.712,-0.000125885009765625,0.00208282470703125,0.00555610656738281,0,
00:00:02.716,-0.000165939331054688,0.00202560424804688,0.00554466247558594,0,
00:00:02.72,-0.000171661376953125,0.00199127197265625,0.0055389404296875,0,
00:00:02.724,-0.000154495239257813,0.00201988220214844,0.0055389404296875,0,
00:00:02.728,-0.000171661376953125,0.00202560424804688,0.00555038452148438,0,
00:00:02.732,-0.000165939331054688,0.00201988220214844,0.00556755065917969,0,
00:00:02.736,-0.000154495239257813,0.00201988220214844,0.00557899475097656,0,
00:00:02.74,-0.00016021728515625,0.00200271606445313,0.005584716796875,0,
00:00:02.744,-0.000165939331054688,0.00200843811035156,0.00559043884277344,0,
00:00:02.748,-0.00016021728515625,0.00202560424804688,0.00560188293457031,0,
00:00:02.752,-0.000165939331054688,0.00200843811035156,0.00559616088867188,0,
00:00:02.756,-0.000165939331054688,0.00199127197265625,0.00559616088867188,0,
00:00:02.76,-0.000171661376953125,0.00200843811035156,0.00560760498046875,0,
00:00:02.764,-0.00016021728515625,0.00201988220214844,0.00561332702636719,0,
00:00:02.768,-0.000154495239257813,0.00202560424804688,0.00562477111816406,0,
00:00:02.772,-0.00016021728515625,0.00200271606445313,0.00563621520996094,0,
00:00:02.776,-0.0001373291015625,0.00201988220214844,0.00564193725585938,0,
00:00:02.78,-0.000125885009765625,0.00204277038574219,0.00564193725585938,0,
00:00:02.784,-0.000177383422851563,0.00196266174316406,0.00565338134765625,0,
00:00:02.788,-0.000188827514648438,0.00197982788085938,0.00567054748535156,0,
00:00:02.792,-0.00018310546875,0.00200271606445313,0.00567626953125,0,
00:00:02.796,-0.000171661376953125,0.00200843811035156,0.00567626953125,0,
00:00:02.8,-0.000177383422851563,0.00198554992675781,0.00568771362304688,0,
00:00:02.804,-0.000194549560546875,0.00193977355957031,0.00568771362304688,0,
00:00:02.808,-0.000188827514648438,0.00197982788085938,0.00569343566894531,0,
00:00:02.812,-0.000177383422851563,0.00200271606445313,0.00569343566894531,0,
00:00:02.816,-0.000171661376953125,0.00199127197265625,0.00569915771484375,0,
00:00:02.82,-0.000165939331054688,0.00198554992675781,0.00571632385253906,0,
00:00:02.824,-0.00016021728515625,0.00200271606445313,0.00572776794433594,0,
00:00:02.828,-0.00018310546875,0.00199127197265625,0.00572776794433594,0,
00:00:02.832,-0.00016021728515625,0.00198554992675781,0.00573348999023438,0,
00:00:02.836,-0.000188827514648438,0.0019683837890625,0.00575065612792969,0,
00:00:02.84,-0.00018310546875,0.00197410583496094,0.00574493408203125,0,
00:00:02.844,-0.000177383422851563,0.00196266174316406,0.00575637817382813,0,
00:00:02.848,-0.00018310546875,0.00196266174316406,0.005767822265625,0,
00:00:02.852,-0.000177383422851563,0.00196266174316406,0.005767822265625,0,
00:00:02.856,-0.000171661376953125,0.0019683837890625,0.00578498840332031,0,
00:00:02.86,-0.000165939331054688,0.00197982788085938,0.00578498840332031,0,
00:00:02.864,-0.000165939331054688,0.0019683837890625,0.00578498840332031,0,
00:00:02.868,-0.000171661376953125,0.00196266174316406,0.00580215454101563,0,
00:00:02.872,-0.000165939331054688,0.00197982788085938,0.00579643249511719,0,
00:00:02.876,-0.0001373291015625,0.00200843811035156,0.00580215454101563,0,
00:00:02.88,-0.000165939331054688,0.00196266174316406,0.00580215454101563,0,
00:00:02.884,-0.000200271606445313,0.00194549560546875,0.0058135986328125,0,
00:00:02.888,-0.000194549560546875,0.00195121765136719,0.00582504272460938,0,
00:00:02.892,-0.00018310546875,0.00196266174316406,0.00581932067871094,0,
00:00:02.896,-0.000188827514648438,0.00196266174316406,0.00582504272460938,0,
00:00:02.9,-0.000217437744140625,0.00191688537597656,0.00582504272460938,0,
00:00:02.904,-0.000217437744140625,0.00190544128417969,0.00583648681640625,0,
00:00:02.908,-0.000194549560546875,0.00195121765136719,0.00584793090820313,0,
00:00:02.912,-0.000194549560546875,0.00194549560546875,0.00584793090820313,0,
00:00:02.916,-0.000194549560546875,0.00193405151367188,0.00586509704589844,0,
00:00:02.92,-0.000188827514648438,0.00195121765136719,0.00586509704589844,0,
00:00:02.924,-0.000188827514648438,0.00196266174316406,0.00587081909179688,0,
00:00:02.928,-0.000188827514648438,0.00195121765136719,0.00588798522949219,0,
00:00:02.932,-0.000200271606445313,0.00193405151367188,0.00589370727539063,0,
00:00:02.936,-0.000188827514648438,0.00195693969726563,0.00589942932128906,0,
00:00:02.94,-0.000194549560546875,0.00193977355957031,0.0059051513671875,0,
00:00:02.944,-0.00018310546875,0.001922607421875,0.00589942932128906,0,
00:00:02.948,-0.000188827514648438,0.00192832946777344,0.00591087341308594,0,
00:00:02.952,-0.000194549560546875,0.00192832946777344,0.00591087341308594,0,
00:00:02.956,-0.000177383422851563,0.00193405151367188,0.00593376159667969,0,
00:00:02.96,-0.000194549560546875,0.00192832946777344,0.00593948364257813,0,
00:00:02.964,-0.000211715698242188,0.00191116333007813,0.00593376159667969,0,
00:00:02.968,-0.000194549560546875,0.00190544128417969,0.00593948364257813,0,
00:00:02.972,-0.000234603881835938,0.0018768310546875,0.00593376159667969,0,
00:00:02.976,-0.000217437744140625,0.00189399719238281,0.00594520568847656,0,
00:00:02.98,-0.0002288818359375,0.00186538696289063,0.00595664978027344,0,
00:00:02.984,-0.0002288818359375,0.00187110900878906,0.00595664978027344,0,
00:00:02.988,-0.000217437744140625,0.00188827514648438,0.00596809387207031,0,
00:00:02.992,-0.000200271606445313,0.001922607421875,0.00598526000976563,0,
00:00:02.996,-0.000211715698242188,0.00191116333007813,0.00597953796386719,0,
00:00:03,-0.000211715698242188,0.00190544128417969,0.00598526000976563,0,
00:00:03.004,-0.000211715698242188,0.00189399719238281,0.00599098205566406,0,
00:00:03.008,-0.000223159790039063,0.00188827514648438,0.00600242614746094,0,
00:00:03.012,-0.00020599365234375,0.00190544128417969,0.0059967041015625,0,
00:00:03.016,-0.000194549560546875,0.00189971923828125,0.00601387023925781,0,
00:00:03.02,-0.000217437744140625,0.00189399719238281,0.00603675842285156,0,
00:00:03.024,-0.0002288818359375,0.00188255310058594,0.00604248046875,0,
00:00:03.028,-0.000211715698242188,0.00188827514648438,0.00604820251464844,0,
00:00:03.032,-0.000217437744140625,0.00188255310058594,0.00603675842285156,0,
00:00:03.036,-0.000217437744140625,0.00189399719238281,0.00604248046875,0,
00:00:03.04,-0.000217437744140625,0.00188255310058594,0.00605392456054688,0,
00:00:03.044,-0.000223159790039063,0.00187110900878906,0.00605964660644531,0,
00:00:03.048,-0.000234603881835938,0.00184249877929688,0.00605964660644531,0,
00:00:03.052,-0.00025177001953125,0.00184249877929688,0.00606536865234375,0,
00:00:03.056,-0.0002288818359375,0.00186538696289063,0.00606536865234375,0,
00:00:03.06,-0.000177383422851563,0.00189971923828125,0.00607109069824219,0,
00:00:03.064,-0.000240325927734375,0.00182533264160156,0.00607109069824219,0,
00:00:03.068,-0.000280380249023438,0.00177955627441406,0.00608253479003906,0,
00:00:03.072,-0.000240325927734375,0.00185394287109375,0.0060882568359375,0,
00:00:03.076,-0.000223159790039063,0.00189399719238281,0.00609970092773438,0,
00:00:03.08,-0.000240325927734375,0.00184249877929688,0.00611114501953125,0,
00:00:03.084,-0.000240325927734375,0.00184822082519531,0.00611114501953125,0,
00:00:03.088,-0.000240325927734375,0.00184822082519531,0.00611686706542969,0,
00:00:03.092,-0.000246047973632813,0.0018310546875,0.00611686706542969,0,
00:00:03.096,-0.000240325927734375,0.00184822082519531,0.00612258911132813,0,
00:00:03.1,-0.000234603881835938,0.00185394287109375,0.00612831115722656,0,
00:00:03.104,-0.000217437744140625,0.00185394287109375,0.00613975524902344,0,
00:00:03.108,-0.000234603881835938,0.0018310546875,0.00614547729492188,0,
00:00:03.112,-0.000268936157226563,0.00180816650390625,0.00615692138671875,0,
00:00:03.116,-0.000268936157226563,0.00181388854980469,0.00616264343261719,0,
00:00:03.12,-0.000263214111328125,0.00181388854980469,0.00617408752441406,0,
00:00:03.124,-0.00025177001953125,0.00181388854980469,0.0061798095703125,0,
00:00:03.128,-0.000246047973632813,0.00181388854980469,0.00618553161621094,0,
00:00:03.132,-0.00025177001953125,0.00180816650390625,0.00620269775390625,0,
00:00:03.136,-0.000257492065429688,0.0017852783203125,0.00619125366210938,0,
00:00:03.14,-0.000246047973632813,0.00181961059570313,0.00619697570800781,0,
00:00:03.144,-0.000263214111328125,0.00180816650390625,0.00620269775390625,0,
00:00:03.148,-0.000246047973632813,0.00181388854980469,0.00621986389160156,0,
00:00:03.152,-0.000240325927734375,0.00181388854980469,0.00621986389160156,0,
00:00:03.156,-0.0002288818359375,0.0018310546875,0.00620269775390625,0,
00:00:03.16,-0.00025177001953125,0.00179672241210938,0.00620841979980469,0,
00:00:03.164,-0.000240325927734375,0.00180816650390625,0.00623703002929688,0,
00:00:03.168,-0.00029754638671875,0.00174522399902344,0.00623130798339844,0,
00:00:03.172,-0.000291824340820313,0.00176239013671875,0.00624847412109375,0,
00:00:03.176,-0.000268936157226563,0.00177383422851563,0.00625419616699219,0,
00:00:03.18,-0.000274658203125,0.00175666809082031,0.00625991821289063,0,
00:00:03.184,-0.000274658203125,0.00175666809082031,0.00625991821289063,0,
00:00:03.188,-0.00025177001953125,0.00177383422851563,0.00626564025878906,0,
00:00:03.192,-0.000268936157226563,0.00175666809082031,0.0062713623046875,0,
00:00:03.196,-0.000268936157226563,0.00175666809082031,0.00628852844238281,0,
00:00:03.2,-0.000280380249023438,0.00175094604492188,0.00628852844238281,0,
00:00:03.204,-0.000280380249023438,0.00176811218261719,0.00629997253417969,0,
00:00:03.208,-0.000268936157226563,0.0017852783203125,0.00629997253417969,0,
00:00:03.212,-0.000274658203125,0.0017852783203125,0.00629997253417969,0,
00:00:03.216,-0.000263214111328125,0.0017852783203125,0.00630569458007813,0,
00:00:03.22,-0.000274658203125,0.00174522399902344,0.006317138671875,0,
00:00:03.224,-0.000303268432617188,0.00171661376953125,0.00632858276367188,0,
00:00:03.228,-0.000286102294921875,0.00174522399902344,0.00633430480957031,0,
00:00:03.232,-0.00025177001953125,0.00179100036621094,0.00634574890136719,0,
00:00:03.236,-0.000263214111328125,0.00177955627441406,0.00634002685546875,0,
00:00:03.24,-0.000286102294921875,0.001739501953125,0.00632286071777344,0,
00:00:03.244,-0.000291824340820313,0.00171661376953125,0.00635719299316406,0,
00:00:03.248,-0.000280380249023438,0.00174522399902344,0.00635147094726563,0,
00:00:03.252,-0.000303268432617188,0.00171089172363281,0.0063629150390625,0,
00:00:03.256,-0.000308990478515625,0.00170516967773438,0.00635719299316406,0,
00:00:03.26,-0.000303268432617188,0.00170516967773438,0.0063629150390625,0,
00:00:03.264,-0.00029754638671875,0.00169944763183594,0.00636863708496094,0,
00:00:03.268,-0.000291824340820313,0.0016937255859375,0.00636863708496094,0,
00:00:03.272,-0.000291824340820313,0.0016937255859375,0.00638580322265625,0,
00:00:03.276,-0.00029754638671875,0.00169944763183594,0.00638580322265625,0,
00:00:03.28,-0.000303268432617188,0.00169944763183594,0.00639724731445313,0,
00:00:03.284,-0.000280380249023438,0.00171089172363281,0.00641441345214844,0,
00:00:03.288,-0.000286102294921875,0.00172805786132813,0.00641441345214844,0,
00:00:03.292,-0.000303268432617188,0.00169944763183594,0.00642585754394531,0,
00:00:03.296,-0.000274658203125,0.00171661376953125,0.00642585754394531,0,
00:00:03.3,-0.000268936157226563,0.00171089172363281,0.00643157958984375,0,
00:00:03.304,-0.000308990478515625,0.00166511535644531,0.00644874572753906,0,
00:00:03.308,-0.000331878662109375,0.00163650512695313,0.00643730163574219,0,
00:00:03.312,-0.000303268432617188,0.00164794921875,0.00644302368164063,0,
00:00:03.316,-0.000291824340820313,0.00167655944824219,0.0064544677734375,0,
00:00:03.32,-0.000314712524414063,0.00166511535644531,0.0064544677734375,0,
00:00:03.324,-0.000303268432617188,0.00165939331054688,0.00647163391113281,0,
00:00:03.328,-0.000326156616210938,0.00164794921875,0.00647163391113281,0,
00:00:03.332,-0.0003204345703125,0.00164222717285156,0.00648307800292969,0,
00:00:03.336,-0.0003204345703125,0.00164794921875,0.00648880004882813,0,
00:00:03.34,-0.000314712524414063,0.00164794921875,0.006500244140625,0,
00:00:03.344,-0.000308990478515625,0.00165367126464844,0.006500244140625,0,
00:00:03.348,-0.00029754638671875,0.00167083740234375,0.006500244140625,0,
00:00:03.352,-0.0003204345703125,0.00163650512695313,0.006500244140625,0,
00:00:03.356,-0.000337600708007813,0.00161933898925781,0.00651741027832031,0,
00:00:03.36,-0.000326156616210938,0.00163078308105469,0.00653457641601563,0,
00:00:03.364,-0.000337600708007813,0.00163078308105469,0.00652885437011719,0,
00:00:03.368,-0.000331878662109375,0.00163650512695313,0.00654029846191406,0,
00:00:03.372,-0.0003204345703125,0.00163078308105469,0.00653457641601563,0,
00:00:03.376,-0.0003204345703125,0.00162506103515625,0.00654029846191406,0,
00:00:03.38,-0.000331878662109375,0.0016021728515625,0.00652885437011719,0,
00:00:03.384,-0.000337600708007813,0.00159645080566406,0.00655174255371094,0,
00:00:03.388,-0.0003204345703125,0.00164222717285156,0.00656318664550781,0,
00:00:03.392,-0.000331878662109375,0.00162506103515625,0.00657463073730469,0,
00:00:03.396,-0.000326156616210938,0.00163650512695313,0.00652885437011719,0,
00:00:03.4,-0.00034332275390625,0.0016021728515625,0.00655746459960938,0,
00:00:03.404,-0.000349044799804688,0.00156784057617188,0.00657463073730469,0,
00:00:03.408,-0.000337600708007813,0.00159645080566406,0.006591796875,0,
00:00:03.412,-0.000326156616210938,0.00161361694335938,0.00659751892089844,0,
00:00:03.416,-0.0003204345703125,0.00161933898925781,0.006591796875,0,
00:00:03.42,-0.000354766845703125,0.00157928466796875,0.006591796875,0,
00:00:03.424,-0.000360488891601563,0.00157928466796875,0.00660324096679688,0,
00:00:03.428,-0.000354766845703125,0.00161361694335938,0.00660896301269531,0,
00:00:03.432,-0.000337600708007813,0.00162506103515625,0.00660896301269531,0,
00:00:03.436,-0.000331878662109375,0.00162506103515625,0.00662040710449219,0,
00:00:03.44,-0.000337600708007813,0.00161361694335938,0.00662612915039063,0,
00:00:03.444,-0.000326156616210938,0.00163078308105469,0.00661468505859375,0,
00:00:03.448,-0.000349044799804688,0.0016021728515625,0.00662040710449219,0,
00:00:03.452,-0.000371932983398438,0.001556396484375,0.00663185119628906,0,
00:00:03.456,-0.0003662109375,0.00156784057617188,0.00664901733398438,0,
00:00:03.46,-0.00034332275390625,0.00158500671386719,0.00665473937988281,0,
00:00:03.464,-0.000354766845703125,0.00157356262207031,0.00665473937988281,0,
00:00:03.468,-0.00034332275390625,0.00160789489746094,0.00665473937988281,0,
00:00:03.472,-0.000349044799804688,0.0016021728515625,0.00666046142578125,0,
00:00:03.476,-0.00034332275390625,0.00160789489746094,0.00665473937988281,0,
00:00:03.48,-0.000371932983398438,0.00157356262207031,0.00666618347167969,0,
00:00:03.484,-0.000354766845703125,0.00158500671386719,0.00668907165527344,0,
00:00:03.488,-0.000349044799804688,0.00159645080566406,0.00667762756347656,0,
00:00:03.492,-0.00034332275390625,0.00157928466796875,0.006683349609375,0,
00:00:03.496,-0.00034332275390625,0.00158500671386719,0.00667762756347656,0,
00:00:03.5,-0.000377655029296875,0.001556396484375,0.00667762756347656,0,
00:00:03.504,-0.000377655029296875,0.00156211853027344,0.00671195983886719,0,
00:00:03.508,-0.0003662109375,0.00156784057617188,0.00671195983886719,0,
00:00:03.512,-0.000383377075195313,0.00154495239257813,0.00671195983886719,0,
00:00:03.516,-0.000383377075195313,0.00154495239257813,0.00671195983886719,0,
00:00:03.52,-0.000377655029296875,0.00153923034667969,0.0067291259765625,0,
00:00:03.524,-0.00038909912109375,0.00152778625488281,0.00672340393066406,0,
00:00:03.528,-0.000383377075195313,0.00153350830078125,0.00672340393066406,0,
00:00:03.532,-0.000360488891601563,0.00157356262207031,0.00672340393066406,0,
00:00:03.536,-0.000354766845703125,0.00159072875976563,0.0067291259765625,0,
00:00:03.54,-0.000360488891601563,0.00156784057617188,0.00673484802246094,0,
00:00:03.544,-0.000349044799804688,0.00156784057617188,0.00673484802246094,0,
00:00:03.548,-0.00038909912109375,0.00151634216308594,0.00672340393066406,0,
00:00:03.552,-0.00038909912109375,0.00152778625488281,0.00674057006835938,0,
00:00:03.556,-0.000377655029296875,0.00153350830078125,0.00675201416015625,0,
00:00:03.56,-0.000371932983398438,0.00153350830078125,0.00675201416015625,0,
00:00:03.564,-0.000371932983398438,0.00151634216308594,0.00673484802246094,0,
00:00:03.568,-0.00038909912109375,0.0015106201171875,0.00674629211425781,0,
00:00:03.572,-0.000377655029296875,0.00150489807128906,0.00675773620605469,0,
00:00:03.576,-0.0003662109375,0.00149917602539063,0.00676918029785156,0,
00:00:03.58,-0.000349044799804688,0.00155067443847656,0.00678062438964844,0,
00:00:03.584,-0.000377655029296875,0.00155067443847656,0.00676918029785156,0,
00:00:03.588,-0.000429153442382813,0.00148200988769531,0.00679206848144531,0,
00:00:03.592,-0.000400543212890625,0.00149345397949219,0.00678062438964844,0,
00:00:03.596,-0.000400543212890625,0.00150489807128906,0.00678634643554688,0,
00:00:03.6,-0.0004119873046875,0.00149917602539063,0.00679779052734375,0,
00:00:03.604,-0.000394821166992188,0.0015106201171875,0.00679206848144531,0,
00:00:03.608,-0.000400543212890625,0.00148773193359375,0.00680351257324219,0,
00:00:03.612,-0.000406265258789063,0.00149345397949219,0.00679779052734375,0,
00:00:03.616,-0.000394821166992188,0.0015106201171875,0.00680923461914063,0,
00:00:03.62,-0.000394821166992188,0.00149345397949219,0.00681495666503906,0,
00:00:03.624,-0.000406265258789063,0.00147628784179688,0.00681495666503906,0,
00:00:03.628,-0.0004119873046875,0.00147056579589844,0.00680923461914063,0,
00:00:03.632,-0.00038909912109375,0.00147628784179688,0.00682640075683594,0,
00:00:03.636,-0.000394821166992188,0.00147628784179688,0.00683784484863281,0,
00:00:03.64,-0.000383377075195313,0.00148200988769531,0.00683784484863281,0,
00:00:03.644,-0.000354766845703125,0.00151634216308594,0.00683784484863281,0,
00:00:03.648,-0.000371932983398438,0.00147628784179688,0.00683784484863281,0,
00:00:03.652,-0.0004119873046875,0.00143623352050781,0.00683784484863281,0,
00:00:03.656,-0.000423431396484375,0.00142478942871094,0.00684356689453125,0,
00:00:03.66,-0.000406265258789063,0.00145339965820313,0.006866455078125,0,
00:00:03.664,-0.0003662109375,0.00149345397949219,0.00688362121582031,0,
00:00:03.668,-0.000371932983398438,0.00148773193359375,0.00687217712402344,0,
00:00:03.672,-0.000469207763671875,0.00138473510742188,0.00685501098632813,0,
00:00:03.676,-0.000457763671875,0.00138473510742188,0.00687217712402344,0,
00:00:03.68,-0.000452041625976563,0.00138473510742188,0.00687217712402344,0,
00:00:03.684,-0.000446319580078125,0.00139617919921875,0.00688362121582031,0,
00:00:03.688,-0.000440597534179688,0.00143623352050781,0.00689506530761719,0,
00:00:03.692,-0.000440597534179688,0.00143051147460938,0.00689506530761719,0,
00:00:03.696,-0.000440597534179688,0.0014190673828125,0.00690078735351563,0,
00:00:03.7,-0.000452041625976563,0.00140762329101563,0.00690078735351563,0,
00:00:03.704,-0.000463485717773438,0.00140190124511719,0.00690650939941406,0,
00:00:03.708,-0.000457763671875,0.00140762329101563,0.00690078735351563,0,
00:00:03.712,-0.000463485717773438,0.00139617919921875,0.00690078735351563,0,
00:00:03.716,-0.000457763671875,0.00139045715332031,0.0069122314453125,0,
00:00:03.72,-0.000423431396484375,0.00144195556640625,0.0069122314453125,0,
00:00:03.724,-0.000446319580078125,0.00140762329101563,0.0069122314453125,0,
00:00:03.728,-0.000486373901367188,0.00133895874023438,0.00692367553710938,0,
00:00:03.732,-0.000520706176757813,0.00133323669433594,0.0069122314453125,0,
00:00:03.736,-0.000509262084960938,0.00134468078613281,0.0069122314453125,0,
00:00:03.74,-0.000492095947265625,0.00136184692382813,0.00691795349121094,0,
00:00:03.744,-0.000486373901367188,0.00136756896972656,0.00691795349121094,0,
00:00:03.748,-0.000497817993164063,0.00133895874023438,0.00691795349121094,0,
00:00:03.752,-0.000514984130859375,0.00133895874023438,0.00694656372070313,0,
00:00:03.756,-0.0005035400390625,0.00136756896972656,0.00693511962890625,0,
00:00:03.76,-0.0005035400390625,0.00136756896972656,0.00694656372070313,0,
00:00:03.764,-0.000520706176757813,0.00133323669433594,0.00694656372070313,0,
00:00:03.768,-0.00052642822265625,0.00132179260253906,0.00694656372070313,0,
00:00:03.772,-0.000520706176757813,0.00132179260253906,0.00694084167480469,0,
00:00:03.776,-0.000520706176757813,0.00131034851074219,0.00694084167480469,0,
00:00:03.78,-0.000520706176757813,0.00131034851074219,0.00695228576660156,0,
00:00:03.784,-0.000509262084960938,0.00131607055664063,0.0069580078125,0,
00:00:03.788,-0.000537872314453125,0.00129318237304688,0.00696945190429688,0,
00:00:03.792,-0.00054931640625,0.00128746032714844,0.00696945190429688,0,
00:00:03.796,-0.00054931640625,0.00129318237304688,0.00696945190429688,0,
00:00:03.8,-0.00054931640625,0.00127601623535156,0.00697517395019531,0,
00:00:03.804,-0.00054931640625,0.00125885009765625,0.00698089599609375,0,
00:00:03.808,-0.000555038452148438,0.00125312805175781,0.00698089599609375,0,
00:00:03.812,-0.000520706176757813,0.00129318237304688,0.00697517395019531,0,
00:00:03.816,-0.000543594360351563,0.00128173828125,0.00696372985839844,0,
00:00:03.82,-0.000566482543945313,0.00124168395996094,0.00698089599609375,0,
00:00:03.824,-0.000577926635742188,0.00123023986816406,0.00697517395019531,0,
00:00:03.828,-0.00057220458984375,0.00124740600585938,0.00696372985839844,0,
00:00:03.832,-0.000566482543945313,0.00125312805175781,0.00696372985839844,0,
00:00:03.836,-0.000577926635742188,0.00121879577636719,0.00697517395019531,0,
00:00:03.84,-0.000577926635742188,0.00120735168457031,0.00698661804199219,0,
00:00:03.844,-0.000583648681640625,0.00125312805175781,0.00698661804199219,0,
00:00:03.848,-0.000583648681640625,0.0012359619140625,0.00698089599609375,0,
00:00:03.852,-0.000600814819335938,0.00119590759277344,0.00698661804199219,0,
00:00:03.856,-0.0005950927734375,0.001190185546875,0.00699234008789063,0,
00:00:03.86,-0.000606536865234375,0.00117874145507813,0.00699234008789063,0,
00:00:03.864,-0.000600814819335938,0.00118446350097656,0.00699234008789063,0,
00:00:03.868,-0.000600814819335938,0.00117874145507813,0.00699234008789063,0,
00:00:03.872,-0.00061798095703125,0.00116729736328125,0.00698661804199219,0,
00:00:03.876,-0.000600814819335938,0.00116729736328125,0.00698089599609375,0,
00:00:03.88,-0.000623703002929688,0.0011444091796875,0.00699234008789063,0,
00:00:03.884,-0.000640869140625,0.00112724304199219,0.00699234008789063,0,
00:00:03.888,-0.000635147094726563,0.00113296508789063,0.0070037841796875,0,
00:00:03.892,-0.000629425048828125,0.00113868713378906,0.0070037841796875,0,
00:00:03.896,-0.000629425048828125,0.00113296508789063,0.0070037841796875,0,
00:00:03.9,-0.000629425048828125,0.00112724304199219,0.0070037841796875,0,
00:00:03.904,-0.000635147094726563,0.0011444091796875,0.00700950622558594,0,
00:00:03.908,-0.000652313232421875,0.00111007690429688,0.00702667236328125,0,
00:00:03.912,-0.00066375732421875,0.00109291076660156,0.00700950622558594,0,
00:00:03.916,-0.000652313232421875,0.00111579895019531,0.0070037841796875,0,
00:00:03.92,-0.000640869140625,0.00112724304199219,0.00700950622558594,0,
00:00:03.924,-0.000629425048828125,0.00112724304199219,0.00701522827148438,0,
00:00:03.928,-0.000646591186523438,0.00109291076660156,0.00702095031738281,0,
00:00:03.932,-0.000652313232421875,0.00108718872070313,0.00702095031738281,0,
00:00:03.936,-0.00066375732421875,0.0010986328125,0.0070037841796875,0,
00:00:03.94,-0.000680923461914063,0.00104713439941406,0.00699234008789063,0,
00:00:03.944,-0.000680923461914063,0.00104141235351563,0.00701522827148438,0,
00:00:03.948,-0.000675201416015625,0.00107002258300781,0.00701522827148438,0,
00:00:03.952,-0.000669479370117188,0.00108718872070313,0.00700950622558594,0,
00:00:03.956,-0.000675201416015625,0.00106430053710938,0.0070037841796875,0,
00:00:03.96,-0.0006866455078125,0.00104713439941406,0.00700950622558594,0,
00:00:03.964,-0.000680923461914063,0.0010528564453125,0.00701522827148438,0,
00:00:03.968,-0.00066375732421875,0.00107002258300781,0.00702095031738281,0,
00:00:03.972,-0.000703811645507813,0.00102996826171875,0.00700950622558594,0,
00:00:03.976,-0.000726699829101563,0.00100135803222656,0.00700950622558594,0,
00:00:03.98,-0.000703811645507813,0.00102996826171875,0.00700950622558594,0,
00:00:03.984,-0.000680923461914063,0.0010528564453125,0.0070037841796875,0,
00:00:03.988,-0.00070953369140625,0.00104141235351563,0.00702095031738281,0,
00:00:03.992,-0.000732421875,0.00103569030761719,0.00701522827148438,0,
00:00:03.996,-0.000749588012695313,0.00101280212402344,0.00701522827148438,0,
00:00:04,-0.000738143920898438,0.00103569030761719,0.0070037841796875,0,
00:00:04.004,-0.000743865966796875,0.001007080078125,0.00700950622558594,0,
00:00:04.008,-0.000749588012695313,0.00098419189453125,0.00701522827148438,0,
00:00:04.012,-0.000743865966796875,0.00100135803222656,0.00701522827148438,0,
00:00:04.016,-0.000749588012695313,0.000995635986328125,0.00701522827148438,0,
00:00:04.02,-0.000761032104492188,0.000972747802734375,0.00700950622558594,0,
00:00:04.024,-0.00075531005859375,0.000967025756835938,0.00700950622558594,0,
00:00:04.028,-0.00075531005859375,0.00098419189453125,0.00700950622558594,0,
00:00:04.032,-0.000749588012695313,0.00100135803222656,0.00700950622558594,0,
00:00:04.036,-0.00075531005859375,0.001007080078125,0.0070037841796875,0,
00:00:04.04,-0.000738143920898438,0.00101852416992188,0.00699806213378906,0,
00:00:04.044,-0.000738143920898438,0.00101852416992188,0.00699234008789063,0,
00:00:04.048,-0.000783920288085938,0.000967025756835938,0.00700950622558594,0,
00:00:04.052,-0.000783920288085938,0.000944137573242188,0.00700950622558594,0,
00:00:04.056,-0.0007781982421875,0.000944137573242188,0.00699806213378906,0,
00:00:04.06,-0.000761032104492188,0.000967025756835938,0.0070037841796875,0,
00:00:04.064,-0.000789642333984375,0.0009613037109375,0.0070037841796875,0,
00:00:04.068,-0.000783920288085938,0.000972747802734375,0.00699234008789063,0,
00:00:04.072,-0.000789642333984375,0.000955581665039063,0.0070037841796875,0,
00:00:04.076,-0.00080108642578125,0.000944137573242188,0.00699806213378906,0,
00:00:04.08,-0.000789642333984375,0.000967025756835938,0.00698089599609375,0,
00:00:04.084,-0.000783920288085938,0.000949859619140625,0.00699806213378906,0,
00:00:04.088,-0.000783920288085938,0.000955581665039063,0.00699234008789063,0,
00:00:04.092,-0.00080108642578125,0.000955581665039063,0.00698661804199219,0,
00:00:04.096,-0.000812530517578125,0.000921249389648438,0.00698661804199219,0,
00:00:04.1,-0.000812530517578125,0.000926971435546875,0.00698661804199219,0,
00:00:04.104,-0.00080108642578125,0.000926971435546875,0.00698661804199219,0,
00:00:04.108,-0.000772476196289063,0.0009613037109375,0.00697517395019531,0,
00:00:04.112,-0.00080108642578125,0.000921249389648438,0.00696372985839844,0,
00:00:04.116,-0.000829696655273438,0.000881195068359375,0.00696945190429688,0,
00:00:04.12,-0.000829696655273438,0.000875473022460938,0.00696945190429688,0,
00:00:04.124,-0.000818252563476563,0.000904083251953125,0.0069580078125,0,
00:00:04.128,-0.000806808471679688,0.000926971435546875,0.00696372985839844,0,
00:00:04.132,-0.00080108642578125,0.000926971435546875,0.0069580078125,0,
00:00:04.136,-0.000806808471679688,0.000909805297851563,0.0069580078125,0,
00:00:04.14,-0.000812530517578125,0.00089263916015625,0.00696372985839844,0,
00:00:04.144,-0.000806808471679688,0.000904083251953125,0.0069580078125,0,
00:00:04.148,-0.000806808471679688,0.000909805297851563,0.00696372985839844,0,
00:00:04.152,-0.00080108642578125,0.000909805297851563,0.0069580078125,0,
00:00:04.156,-0.000806808471679688,0.00091552734375,0.00696372985839844,0,
00:00:04.16,-0.000795364379882813,0.000926971435546875,0.00696945190429688,0,
00:00:04.164,-0.00080108642578125,0.000904083251953125,0.00696372985839844,0,
00:00:04.168,-0.000841140747070313,0.000858306884765625,0.00694656372070313,0,
00:00:04.172,-0.000858306884765625,0.000829696655273438,0.00694656372070313,0,
00:00:04.176,-0.000829696655273438,0.000864028930664063,0.00692939758300781,0,
00:00:04.18,-0.000823974609375,0.000864028930664063,0.00694084167480469,0,
00:00:04.184,-0.000818252563476563,0.00084686279296875,0.00694084167480469,0,
00:00:04.188,-0.000818252563476563,0.000875473022460938,0.00694084167480469,0,
00:00:04.192,-0.000818252563476563,0.000858306884765625,0.00693511962890625,0,
00:00:04.196,-0.000818252563476563,0.000852584838867188,0.00693511962890625,0,
00:00:04.2,-0.000806808471679688,0.000875473022460938,0.00693511962890625,0,
00:00:04.204,-0.00080108642578125,0.0008697509765625,0.00693511962890625,0,
00:00:04.208,-0.00080108642578125,0.000858306884765625,0.00692939758300781,0,
00:00:04.212,-0.000795364379882813,0.000864028930664063,0.00692367553710938,0,
00:00:04.216,-0.000795364379882813,0.000852584838867188,0.00692367553710938,0,
00:00:04.22,-0.00080108642578125,0.000835418701171875,0.00692367553710938,0,
00:00:04.224,-0.00080108642578125,0.000841140747070313,0.00691795349121094,0,
00:00:04.228,-0.000772476196289063,0.000864028930664063,0.00690650939941406,0,
00:00:04.232,-0.000761032104492188,0.000886917114257813,0.00690078735351563,0,
00:00:04.236,-0.00080108642578125,0.000823974609375,0.00689506530761719,0,
00:00:04.24,-0.000806808471679688,0.000823974609375,0.00688362121582031,0,
00:00:04.244,-0.000812530517578125,0.00080108642578125,0.00688362121582031,0,
00:00:04.248,-0.00080108642578125,0.000818252563476563,0.00688934326171875,0,
00:00:04.252,-0.000806808471679688,0.000823974609375,0.00688362121582031,0,
00:00:04.256,-0.000789642333984375,0.000835418701171875,0.006866455078125,0,
00:00:04.26,-0.00080108642578125,0.000818252563476563,0.00686073303222656,0,
00:00:04.264,-0.000841140747070313,0.000783920288085938,0.00685501098632813,0,
00:00:04.268,-0.000829696655273438,0.000766754150390625,0.006866455078125,0,
00:00:04.272,-0.000806808471679688,0.000789642333984375,0.006866455078125,0,
00:00:04.276,-0.00080108642578125,0.000806808471679688,0.00683212280273438,0,
00:00:04.28,-0.000806808471679688,0.000823974609375,0.00684356689453125,0,
00:00:04.284,-0.00080108642578125,0.000823974609375,0.00683784484863281,0,
00:00:04.288,-0.000789642333984375,0.000829696655273438,0.00682640075683594,0,
00:00:04.292,-0.0007781982421875,0.000835418701171875,0.0068206787109375,0,
00:00:04.296,-0.000783920288085938,0.000829696655273438,0.00681495666503906,0,
00:00:04.3,-0.000789642333984375,0.000812530517578125,0.00680923461914063,0,
00:00:04.304,-0.000783920288085938,0.00080108642578125,0.00680923461914063,0,
00:00:04.308,-0.000772476196289063,0.000806808471679688,0.00680351257324219,0,
00:00:04.312,-0.000761032104492188,0.000818252563476563,0.00679206848144531,0,
00:00:04.316,-0.0007781982421875,0.000795364379882813,0.00679206848144531,0,
00:00:04.32,-0.00080108642578125,0.000761032104492188,0.00676918029785156,0,
00:00:04.324,-0.000806808471679688,0.00075531005859375,0.00678062438964844,0,
00:00:04.328,-0.000783920288085938,0.0007781982421875,0.00676918029785156,0,
00:00:04.332,-0.000772476196289063,0.000806808471679688,0.00676345825195313,0,
00:00:04.336,-0.000783920288085938,0.000789642333984375,0.00674629211425781,0,
00:00:04.34,-0.0007781982421875,0.000795364379882813,0.00675201416015625,0,
00:00:04.344,-0.00075531005859375,0.000795364379882813,0.00674057006835938,0,
00:00:04.348,-0.000761032104492188,0.000795364379882813,0.00674629211425781,0,
00:00:04.352,-0.000789642333984375,0.000766754150390625,0.0067291259765625,0,
00:00:04.356,-0.0007781982421875,0.000789642333984375,0.00672340393066406,0,
00:00:04.36,-0.000766754150390625,0.000789642333984375,0.00671768188476563,0,
00:00:04.364,-0.000749588012695313,0.00080108642578125,0.00671768188476563,0,
00:00:04.368,-0.00075531005859375,0.000795364379882813,0.00671195983886719,0,
00:00:04.372,-0.000749588012695313,0.000806808471679688,0.00670051574707031,0,
00:00:04.376,-0.000749588012695313,0.000806808471679688,0.00669479370117188,0,
00:00:04.38,-0.000749588012695313,0.00080108642578125,0.006683349609375,0,
00:00:04.384,-0.000732421875,0.000812530517578125,0.00667762756347656,0,
00:00:04.388,-0.000732421875,0.000812530517578125,0.00666618347167969,0,
00:00:04.392,-0.000738143920898438,0.00080108642578125,0.00666046142578125,0,
00:00:04.396,-0.000726699829101563,0.000795364379882813,0.00664901733398438,0,
00:00:04.4,-0.000732421875,0.000789642333984375,0.00664329528808594,0,
00:00:04.404,-0.000749588012695313,0.000806808471679688,0.00663185119628906,0,
00:00:04.408,-0.000738143920898438,0.000835418701171875,0.00662612915039063,0,
00:00:04.412,-0.000715255737304688,0.000835418701171875,0.00661468505859375,0,
00:00:04.416,-0.00070953369140625,0.000829696655273438,0.00660324096679688,0,
00:00:04.42,-0.000692367553710938,0.000841140747070313,0.00659751892089844,0,
00:00:04.424,-0.000726699829101563,0.000841140747070313,0.00658607482910156,0,
00:00:04.428,-0.000720977783203125,0.000852584838867188,0.00656318664550781,0,
00:00:04.432,-0.000703811645507813,0.000858306884765625,0.00658035278320313,0,
00:00:04.436,-0.000692367553710938,0.000858306884765625,0.00655746459960938,0,
00:00:04.44,-0.000692367553710938,0.000852584838867188,0.00655174255371094,0,
00:00:04.444,-0.000680923461914063,0.0008697509765625,0.0065460205078125,0,
00:00:04.448,-0.000680923461914063,0.000875473022460938,0.00652885437011719,0,
00:00:04.452,-0.000692367553710938,0.00084686279296875,0.00653457641601563,0,
00:00:04.456,-0.000698089599609375,0.000864028930664063,0.00652885437011719,0,
00:00:04.46,-0.000680923461914063,0.000881195068359375,0.00652313232421875,0,
00:00:04.464,-0.000669479370117188,0.000881195068359375,0.00651741027832031,0,
00:00:04.468,-0.000675201416015625,0.000881195068359375,0.00650596618652344,0,
00:00:04.472,-0.000675201416015625,0.000886917114257813,0.00650596618652344,0,
00:00:04.476,-0.000669479370117188,0.000898361206054688,0.006500244140625,0,
00:00:04.48,-0.000669479370117188,0.000904083251953125,0.00648880004882813,0,
00:00:04.484,-0.000669479370117188,0.000909805297851563,0.00647735595703125,0,
00:00:04.488,-0.000635147094726563,0.000932693481445313,0.00647735595703125,0,
00:00:04.492,-0.000640869140625,0.00093841552734375,0.00647163391113281,0,
00:00:04.496,-0.000640869140625,0.000932693481445313,0.0064544677734375,0,
00:00:04.5,-0.00066375732421875,0.000881195068359375,0.00644874572753906,0,
00:00:04.504,-0.000652313232421875,0.000904083251953125,0.0064544677734375,0,
00:00:04.508,-0.000629425048828125,0.000955581665039063,0.00643157958984375,0,
00:00:04.512,-0.000612258911132813,0.00100135803222656,0.00642585754394531,0,
00:00:04.516,-0.000606536865234375,0.000989913940429688,0.00642585754394531,0,
00:00:04.52,-0.000629425048828125,0.000955581665039063,0.00640869140625,0,
00:00:04.524,-0.00061798095703125,0.000972747802734375,0.00640296936035156,0,
00:00:04.528,-0.000612258911132813,0.000989913940429688,0.00639724731445313,0,
00:00:04.532,-0.0005950927734375,0.000995635986328125,0.00638580322265625,0,
00:00:04.536,-0.00057220458984375,0.00102996826171875,0.00636863708496094,0,
00:00:04.54,-0.00054931640625,0.00105857849121094,0.00636863708496094,0,
00:00:04.544,-0.000583648681640625,0.00101280212402344,0.0063629150390625,0,
00:00:04.548,-0.00061798095703125,0.000978469848632813,0.00635719299316406,0,
00:00:04.552,-0.000577926635742188,0.00102996826171875,0.00634574890136719,0,
00:00:04.556,-0.00057220458984375,0.00104141235351563,0.00634002685546875,0,
00:00:04.56,-0.000566482543945313,0.00104713439941406,0.00632286071777344,0,
00:00:04.564,-0.000555038452148438,0.0010528564453125,0.006317138671875,0,
00:00:04.568,-0.000555038452148438,0.00106430053710938,0.00629997253417969,0,
00:00:04.572,-0.000532150268554688,0.00108718872070313,0.00629997253417969,0,
00:00:04.576,-0.000532150268554688,0.0010986328125,0.00629425048828125,0,
00:00:04.58,-0.000537872314453125,0.0010986328125,0.00627708435058594,0,
00:00:04.584,-0.000514984130859375,0.0011444091796875,0.0062713623046875,0,
00:00:04.588,-0.000509262084960938,0.00116157531738281,0.00624847412109375,0,
00:00:04.592,-0.000509262084960938,0.00115013122558594,0.00624275207519531,0,
00:00:04.596,-0.000497817993164063,0.00115013122558594,0.0062255859375,0,
00:00:04.6,-0.000486373901367188,0.00115585327148438,0.00621986389160156,0,
00:00:04.604,-0.000497817993164063,0.00116157531738281,0.0062255859375,0,
00:00:04.608,-0.000486373901367188,0.00117874145507813,0.00621986389160156,0,
00:00:04.612,-0.000509262084960938,0.00116729736328125,0.00620269775390625,0,
00:00:04.616,-0.000497817993164063,0.001190185546875,0.00619125366210938,0,
00:00:04.62,-0.000486373901367188,0.00122451782226563,0.00618553161621094,0,
00:00:04.624,-0.000469207763671875,0.00124740600585938,0.0061798095703125,0,
00:00:04.628,-0.000486373901367188,0.0012359619140625,0.00616836547851563,0,
00:00:04.632,-0.00048065185546875,0.0012359619140625,0.00615692138671875,0,
00:00:04.636,-0.00048065185546875,0.00125312805175781,0.00614547729492188,0,
00:00:04.64,-0.000486373901367188,0.00124740600585938,0.00613975524902344,0,
00:00:04.644,-0.000486373901367188,0.00125312805175781,0.00613975524902344,0,
00:00:04.648,-0.000486373901367188,0.00126457214355469,0.00612831115722656,0,
00:00:04.652,-0.00048065185546875,0.00127029418945313,0.00611686706542969,0,
00:00:04.656,-0.000474929809570313,0.00128173828125,0.00612258911132813,0,
00:00:04.66,-0.000474929809570313,0.00127601623535156,0.00611686706542969,0,
00:00:04.664,-0.000469207763671875,0.00128173828125,0.00610542297363281,0,
00:00:04.668,-0.000457763671875,0.00128746032714844,0.0060882568359375,0,
00:00:04.672,-0.000440597534179688,0.00133895874023438,0.0060882568359375,0,
00:00:04.676,-0.000423431396484375,0.00136756896972656,0.00607109069824219,0,
00:00:04.68,-0.000446319580078125,0.00133323669433594,0.00606536865234375,0,
00:00:04.684,-0.000474929809570313,0.00129890441894531,0.00604820251464844,0,
00:00:04.688,-0.000446319580078125,0.00132179260253906,0.00603675842285156,0,
00:00:04.692,-0.000457763671875,0.00133323669433594,0.00601959228515625,0,
00:00:04.696,-0.000440597534179688,0.001373291015625,0.00600242614746094,0,
00:00:04.7,-0.000417709350585938,0.00139617919921875,0.00600242614746094,0,
00:00:04.704,-0.000406265258789063,0.00140762329101563,0.00599098205566406,0,
00:00:04.708,-0.0004119873046875,0.00139617919921875,0.00597381591796875,0,
00:00:04.712,-0.0004119873046875,0.00140190124511719,0.00596237182617188,0,
00:00:04.716,-0.000406265258789063,0.00139045715332031,0.00596809387207031,0,
00:00:04.72,-0.000394821166992188,0.00139617919921875,0.00596809387207031,0,
00:00:04.724,-0.00038909912109375,0.00140190124511719,0.00596237182617188,0,
00:00:04.728,-0.000394821166992188,0.00141334533691406,0.00595664978027344,0,
00:00:04.732,-0.000383377075195313,0.00143051147460938,0.00594520568847656,0,
00:00:04.736,-0.000354766845703125,0.00145912170410156,0.00594520568847656,0,
00:00:04.74,-0.000371932983398438,0.00145912170410156,0.00593948364257813,0,
00:00:04.744,-0.0003662109375,0.00146484375,0.00594520568847656,0,
00:00:04.748,-0.000377655029296875,0.00146484375,0.00591659545898438,0,
00:00:04.752,-0.000377655029296875,0.00148773193359375,0.00591659545898438,0,
00:00:04.756,-0.0003662109375,0.00150489807128906,0.00589942932128906,0,
00:00:04.76,-0.0003662109375,0.00149345397949219,0.00588798522949219,0,
00:00:04.764,-0.000360488891601563,0.00152778625488281,0.00588226318359375,0,
00:00:04.768,-0.0003662109375,0.00153350830078125,0.00587081909179688,0,
00:00:04.772,-0.000360488891601563,0.00153350830078125,0.00587081909179688,0,
00:00:04.776,-0.000349044799804688,0.00156211853027344,0.00585365295410156,0,
00:00:04.78,-0.000349044799804688,0.00157928466796875,0.00584793090820313,0,
00:00:04.784,-0.000354766845703125,0.00156784057617188,0.00584793090820313,0,
00:00:04.788,-0.000354766845703125,0.00157928466796875,0.00582504272460938,0,
00:00:04.792,-0.00034332275390625,0.00161361694335938,0.00580787658691406,0,
00:00:04.796,-0.000331878662109375,0.00162506103515625,0.00580787658691406,0,
00:00:04.8,-0.000331878662109375,0.00162506103515625,0.00579643249511719,0,
00:00:04.804,-0.00034332275390625,0.0016021728515625,0.00578498840332031,0,
00:00:04.808,-0.00034332275390625,0.00160789489746094,0.00577926635742188,0,
00:00:04.812,-0.0003204345703125,0.00163650512695313,0.00576210021972656,0,
00:00:04.816,-0.000326156616210938,0.00163078308105469,0.00575065612792969,0,
00:00:04.82,-0.000331878662109375,0.00160789489746094,0.00575065612792969,0,
00:00:04.824,-0.000308990478515625,0.00164222717285156,0.00575637817382813,0,
00:00:04.828,-0.00029754638671875,0.00165367126464844,0.00573921203613281,0,
00:00:04.832,-0.000303268432617188,0.00165939331054688,0.00572776794433594,0,
00:00:04.836,-0.00034332275390625,0.00161361694335938,0.00571632385253906,0,
00:00:04.84,-0.000337600708007813,0.00165367126464844,0.00571060180664063,0,
00:00:04.844,-0.000326156616210938,0.00166511535644531,0.00569915771484375,0,
00:00:04.848,-0.000308990478515625,0.0016937255859375,0.00568771362304688,0,
00:00:04.852,-0.000303268432617188,0.00170516967773438,0.00567626953125,0,
00:00:04.856,-0.000291824340820313,0.00171661376953125,0.00567054748535156,0,
00:00:04.86,-0.00029754638671875,0.00170516967773438,0.00565910339355469,0,
00:00:04.864,-0.00029754638671875,0.00169944763183594,0.00565338134765625,0,
00:00:04.868,-0.00029754638671875,0.00169944763183594,0.00564193725585938,0,
00:00:04.872,-0.00029754638671875,0.00170516967773438,0.00563621520996094,0,
00:00:04.876,-0.000291824340820313,0.00172233581542969,0.0056304931640625,0,
00:00:04.88,-0.000280380249023438,0.00172805786132813,0.00562477111816406,0,
00:00:04.884,-0.000268936157226563,0.00173377990722656,0.00561332702636719,0,
00:00:04.888,-0.000234603881835938,0.00179100036621094,0.00560760498046875,0,
00:00:04.892,-0.000280380249023438,0.00172805786132813,0.00559616088867188,0,
00:00:04.896,-0.000286102294921875,0.00171089172363281,0.00559043884277344,0,
00:00:04.9,-0.000274658203125,0.00173377990722656,0.00559616088867188,0,
00:00:04.904,-0.000268936157226563,0.00175094604492188,0.00559043884277344,0,
00:00:04.908,-0.000257492065429688,0.00176811218261719,0.00557327270507813,0,
00:00:04.912,-0.000274658203125,0.001739501953125,0.00555610656738281,0,
00:00:04.916,-0.000257492065429688,0.00175094604492188,0.00554466247558594,0,
00:00:04.92,-0.000257492065429688,0.00175094604492188,0.00554466247558594,0,
00:00:04.924,-0.000274658203125,0.00173377990722656,0.0055389404296875,0,
00:00:04.928,-0.000268936157226563,0.00173377990722656,0.0055389404296875,0,
00:00:04.932,-0.000257492065429688,0.00174522399902344,0.00552749633789063,0,
00:00:04.936,-0.000246047973632813,0.00174522399902344,0.00552177429199219,0,
00:00:04.94,-0.000240325927734375,0.00176239013671875,0.00550460815429688,0,
00:00:04.944,-0.000223159790039063,0.00177383422851563,0.00549888610839844,0,
00:00:04.948,-0.000217437744140625,0.00176811218261719,0.0054931640625,0,
00:00:04.952,-0.000200271606445313,0.00177955627441406,0.00547599792480469,0,
00:00:04.956,-0.000188827514648438,0.00180244445800781,0.00546455383300781,0,
00:00:04.96,-0.00018310546875,0.00179672241210938,0.00546455383300781,0,
00:00:04.964,-0.000171661376953125,0.00179672241210938,0.00545883178710938,0,
00:00:04.968,-0.000148773193359375,0.00181388854980469,0.00545883178710938,0,
00:00:04.972,-0.000125885009765625,0.0018310546875,0.0054473876953125,0,
00:00:04.976,-0.000131607055664063,0.00180244445800781,0.00543022155761719,0,
00:00:04.98,-0.00011444091796875,0.00180816650390625,0.00543022155761719,0,
00:00:04.984,-0.000143051147460938,0.00177955627441406,0.00543594360351563,0,
00:00:04.988,-0.000125885009765625,0.00180244445800781,0.00543022155761719,0,
00:00:04.992,-0.000143051147460938,0.00180816650390625,0.00540733337402344,0,
00:00:04.996,-0.000131607055664063,0.00182533264160156,0.005401611328125,0,
00:00:05,-0.000131607055664063,0.00181388854980469,0.00539588928222656,0,
00:00:05.004,-0.000143051147460938,0.00182533264160156,0.00539016723632813,0,
00:00:05.008,-0.000148773193359375,0.00181388854980469,0.00537872314453125,0,
00:00:05.012,-0.0001373291015625,0.00181388854980469,0.00537300109863281,0,
00:00:05.016,-0.000131607055664063,0.00181961059570313,0.00536727905273438,0,
00:00:05.02,-0.000125885009765625,0.00184822082519531,0.00535011291503906,0,
00:00:05.024,-0.000120162963867188,0.00186538696289063,0.0053558349609375,0,
00:00:05.028,-0.000102996826171875,0.0018768310546875,0.0053558349609375,0,
00:00:05.032,-0.000102996826171875,0.00187110900878906,0.0053558349609375,0,
00:00:05.036,-0.00011444091796875,0.00186538696289063,0.00534439086914063,0,
00:00:05.04,-0.000102996826171875,0.00187110900878906,0.00533866882324219,0,
00:00:05.044,-8.58306884765625E-05,0.00188255310058594,0.00532722473144531,0,
00:00:05.048,-9.1552734375E-05,0.00188255310058594,0.00531578063964844,0,
00:00:05.052,-8.0108642578125E-05,0.00190544128417969,0.00529861450195313,0,
00:00:05.056,-7.43865966796875E-05,0.00189971923828125,0.00529289245605469,0,
00:00:05.06,-8.0108642578125E-05,0.00188827514648438,0.00528717041015625,0,
00:00:05.064,-7.43865966796875E-05,0.00188255310058594,0.00528717041015625,0,
00:00:05.068,-6.866455078125E-05,0.0018768310546875,0.00528717041015625,0,
00:00:05.072,-8.0108642578125E-05,0.0018768310546875,0.00527572631835938,0,
00:00:05.076,-6.866455078125E-05,0.0018768310546875,0.0052642822265625,0,
00:00:05.08,-6.866455078125E-05,0.00187110900878906,0.00525856018066406,0,
00:00:05.084,-5.14984130859375E-05,0.00188255310058594,0.00525283813476563,0,
00:00:05.088,-8.58306884765625E-05,0.00183677673339844,0.00524139404296875,0,
00:00:05.092,-9.1552734375E-05,0.00181961059570313,0.00523567199707031,0,
00:00:05.096,-6.866455078125E-05,0.00186538696289063,0.00522994995117188,0,
00:00:05.1,-5.7220458984375E-05,0.0018768310546875,0.00521278381347656,0,
00:00:05.104,-6.29425048828125E-05,0.00186538696289063,0.005218505859375,0,
00:00:05.108,-4.00543212890625E-05,0.0018768310546875,0.005218505859375,0,
00:00:05.112,-8.0108642578125E-05,0.00184822082519531,0.00519561767578125,0,
00:00:05.116,-6.29425048828125E-05,0.00184822082519531,0.00518989562988281,0,
00:00:05.12,-5.14984130859375E-05,0.00186538696289063,0.00518417358398438,0,
00:00:05.124,-5.14984130859375E-05,0.00187110900878906,0.00516700744628906,0,
00:00:05.128,-5.7220458984375E-05,0.00185394287109375,0.00516700744628906,0,
00:00:05.132,-6.29425048828125E-05,0.00185394287109375,0.0051727294921875,0,
00:00:05.136,-5.14984130859375E-05,0.00188255310058594,0.00516700744628906,0,
00:00:05.14,-4.57763671875E-05,0.00189971923828125,0.00516128540039063,0,
00:00:05.144,-4.57763671875E-05,0.00190544128417969,0.00515556335449219,0,
00:00:05.148,-4.00543212890625E-05,0.00191688537597656,0.00515556335449219,0,
00:00:05.152,-3.4332275390625E-05,0.00190544128417969,0.00515556335449219,0,
00:00:05.156,-5.7220458984375E-05,0.00188827514648438,0.00513839721679688,0,
00:00:05.16,-4.57763671875E-05,0.00192832946777344,0.005126953125,0,
00:00:05.164,-2.288818359375E-05,0.00196266174316406,0.00512123107910156,0,
00:00:05.168,-1.1444091796875E-05,0.00195693969726563,0.005126953125,0,
00:00:05.172,-2.288818359375E-05,0.00196266174316406,0.00511550903320313,0,
00:00:05.176,-4.57763671875E-05,0.00192832946777344,0.00510978698730469,0,
00:00:05.18,-2.288818359375E-05,0.00194549560546875,0.00510978698730469,0,
00:00:05.184,-2.288818359375E-05,0.00193405151367188,0.00509834289550781,0,
00:00:05.188,-2.288818359375E-05,0.00192832946777344,0.00508689880371094,0,
00:00:05.192,-4.00543212890625E-05,0.001922607421875,0.00509262084960938,0,
00:00:05.196,-5.14984130859375E-05,0.00193977355957031,0.00509262084960938,0,
00:00:05.2,-4.00543212890625E-05,0.00193977355957031,0.00506973266601563,0,
00:00:05.204,-4.57763671875E-05,0.001922607421875,0.00505828857421875,0,
00:00:05.208,-3.4332275390625E-05,0.00192832946777344,0.00505828857421875,0,
00:00:05.212,-4.00543212890625E-05,0.001922607421875,0.00505828857421875,0,
00:00:05.216,-4.57763671875E-05,0.00193405151367188,0.00505256652832031,0,
00:00:05.22,-2.288818359375E-05,0.00195693969726563,0.00504684448242188,0,
00:00:05.224,-1.1444091796875E-05,0.00197410583496094,0.00504684448242188,0,
00:00:05.228,-1.71661376953125E-05,0.00197410583496094,0.00504684448242188,0,
00:00:05.232,-2.86102294921875E-05,0.00197982788085938,0.00502395629882813,0,
00:00:05.236,-2.288818359375E-05,0.00199699401855469,0.00501251220703125,0,
00:00:05.24,-1.71661376953125E-05,0.00198554992675781,0.00501823425292969,0,
00:00:05.244,-5.7220458984375E-06,0.00200271606445313,0.00500106811523438,0,
00:00:05.248,-5.7220458984375E-06,0.00200843811035156,0.0049896240234375,0,
00:00:05.252,-2.288818359375E-05,0.00197982788085938,0.00500106811523438,0,
00:00:05.256,-2.288818359375E-05,0.00199127197265625,0.0049896240234375,0,
00:00:05.26,-2.288818359375E-05,0.00198554992675781,0.00498390197753906,0,
00:00:05.264,-2.288818359375E-05,0.00197982788085938,0.00497817993164063,0,
00:00:05.268,-1.1444091796875E-05,0.00198554992675781,0.00497245788574219,0,
00:00:05.272,0,0.00199127197265625,0.00496101379394531,0,
00:00:05.276,-2.86102294921875E-05,0.0019683837890625,0.00493812561035156,0,
00:00:05.28,-3.4332275390625E-05,0.00194549560546875,0.00492095947265625,0,
00:00:05.284,-4.00543212890625E-05,0.00193405151367188,0.00494956970214844,0,
00:00:05.288,-2.86102294921875E-05,0.00192832946777344,0.00494384765625,0,
00:00:05.292,-1.1444091796875E-05,0.00196266174316406,0.00493812561035156,0,
00:00:05.296,-3.4332275390625E-05,0.00195693969726563,0.00491523742675781,0,
00:00:05.3,-2.86102294921875E-05,0.00195121765136719,0.00491523742675781,0,
00:00:05.304,-3.4332275390625E-05,0.00196266174316406,0.00492095947265625,0,
00:00:05.308,-2.86102294921875E-05,0.0019683837890625,0.00492095947265625,0,
00:00:05.312,-2.288818359375E-05,0.00196266174316406,0.00491523742675781,0,
00:00:05.316,-2.288818359375E-05,0.00195693969726563,0.00492095947265625,0,
00:00:05.32,-1.71661376953125E-05,0.0019683837890625,0.00491523742675781,0,
00:00:05.324,-2.86102294921875E-05,0.00193977355957031,0.00490951538085938,0,
00:00:05.328,-2.86102294921875E-05,0.00194549560546875,0.00490951538085938,0,
00:00:05.332,-2.288818359375E-05,0.0019683837890625,0.00490379333496094,0,
00:00:05.336,-2.86102294921875E-05,0.00197410583496094,0.00488662719726563,0,
00:00:05.34,-2.288818359375E-05,0.00196266174316406,0.00488662719726563,0,
00:00:05.344,-2.86102294921875E-05,0.00195121765136719,0.00488662719726563,0,
00:00:05.348,-3.4332275390625E-05,0.00195693969726563,0.00488662719726563,0,
00:00:05.352,-2.288818359375E-05,0.0019683837890625,0.00487518310546875,0,
00:00:05.356,-1.1444091796875E-05,0.00197410583496094,0.00486946105957031,0,
00:00:05.36,-3.4332275390625E-05,0.00193977355957031,0.00485801696777344,0,
00:00:05.364,-4.00543212890625E-05,0.001922607421875,0.00486373901367188,0,
00:00:05.368,-4.00543212890625E-05,0.001922607421875,0.00485801696777344,0,
00:00:05.372,-4.00543212890625E-05,0.00193977355957031,0.00485801696777344,0,
00:00:05.376,-4.57763671875E-05,0.00193977355957031,0.00485801696777344,0,
00:00:05.38,-4.57763671875E-05,0.00195121765136719,0.00484657287597656,0,
00:00:05.384,-2.86102294921875E-05,0.00197982788085938,0.00484657287597656,0,
00:00:05.388,-2.288818359375E-05,0.00199699401855469,0.00484657287597656,0,
00:00:05.392,-1.71661376953125E-05,0.00199699401855469,0.00484085083007813,0,
00:00:05.396,-2.86102294921875E-05,0.00197410583496094,0.00483512878417969,0,
00:00:05.4,-2.86102294921875E-05,0.00196266174316406,0.00484085083007813,0,
00:00:05.404,-1.71661376953125E-05,0.00197410583496094,0.00483512878417969,0,
00:00:05.408,-1.1444091796875E-05,0.00198554992675781,0.00484085083007813,0,
00:00:05.412,-3.4332275390625E-05,0.00197410583496094,0.00482368469238281,0,
00:00:05.416,-2.86102294921875E-05,0.00197982788085938,0.00482368469238281,0,
00:00:05.42,-2.86102294921875E-05,0.00197410583496094,0.00481796264648438,0,
00:00:05.424,-4.00543212890625E-05,0.00196266174316406,0.00482368469238281,0,
00:00:05.428,-3.4332275390625E-05,0.00197410583496094,0.00482368469238281,0,
00:00:05.432,-3.4332275390625E-05,0.00198554992675781,0.00482368469238281,0,
00:00:05.436,-5.14984130859375E-05,0.00195121765136719,0.0048065185546875,0,
00:00:05.44,-3.4332275390625E-05,0.0019683837890625,0.00478363037109375,0,
00:00:05.444,-3.4332275390625E-05,0.00195693969726563,0.00476646423339844,0,
00:00:05.448,-4.57763671875E-05,0.00196266174316406,0.00476646423339844,0,
00:00:05.452,-4.57763671875E-05,0.00197410583496094,0.00477790832519531,0,
00:00:05.456,-2.86102294921875E-05,0.00197982788085938,0.00477218627929688,0,
00:00:05.46,-2.86102294921875E-05,0.00196266174316406,0.00477218627929688,0,
00:00:05.464,-4.00543212890625E-05,0.00194549560546875,0.00478363037109375,0,
00:00:05.468,-4.57763671875E-05,0.00194549560546875,0.00478363037109375,0,
00:00:05.472,-4.00543212890625E-05,0.0019683837890625,0.00477790832519531,0,
00:00:05.476,-3.4332275390625E-05,0.00197410583496094,0.00477218627929688,0,
00:00:05.48,-2.86102294921875E-05,0.00197982788085938,0.00476646423339844,0,
00:00:05.484,-2.288818359375E-05,0.00199699401855469,0.0047607421875,0,
00:00:05.488,-1.71661376953125E-05,0.00199699401855469,0.00476646423339844,0,
00:00:05.492,-1.71661376953125E-05,0.00200271606445313,0.0047607421875,0,
00:00:05.496,-5.14984130859375E-05,0.0019683837890625,0.0047607421875,0,
00:00:05.5,-5.14984130859375E-05,0.00195693969726563,0.00474929809570313,0,
00:00:05.504,-5.14984130859375E-05,0.00196266174316406,0.0047607421875,0,
00:00:05.508,-5.14984130859375E-05,0.00197410583496094,0.00476646423339844,0,
00:00:05.512,-4.00543212890625E-05,0.00199127197265625,0.00476646423339844,0,
00:00:05.516,-4.00543212890625E-05,0.00199127197265625,0.00477218627929688,0,
00:00:05.52,-4.57763671875E-05,0.00197982788085938,0.00476646423339844,0,
00:00:05.524,-4.00543212890625E-05,0.00197982788085938,0.00477790832519531,0,
00:00:05.528,-1.71661376953125E-05,0.00203704833984375,0.00477218627929688,0,
00:00:05.532,-5.14984130859375E-05,0.00199699401855469,0.00474357604980469,0,
00:00:05.536,-4.57763671875E-05,0.00197982788085938,0.0047607421875,0,
00:00:05.54,-6.866455078125E-05,0.00197982788085938,0.0047607421875,0,
00:00:05.544,-5.14984130859375E-05,0.00199127197265625,0.00474357604980469,0,
00:00:05.548,-3.4332275390625E-05,0.00200271606445313,0.0047607421875,0,
00:00:05.552,-3.4332275390625E-05,0.00199699401855469,0.00475502014160156,0,
00:00:05.556,-3.4332275390625E-05,0.00198554992675781,0.00473213195800781,0,
00:00:05.56,-2.86102294921875E-05,0.00197410583496094,0.00474357604980469,0,
00:00:05.564,-4.00543212890625E-05,0.00195121765136719,0.00474929809570313,0,
00:00:05.568,-5.14984130859375E-05,0.00196266174316406,0.00475502014160156,0,
00:00:05.572,-3.4332275390625E-05,0.00201416015625,0.0047607421875,0,
00:00:05.576,-3.4332275390625E-05,0.00201416015625,0.00475502014160156,0,
00:00:05.58,-3.4332275390625E-05,0.00201416015625,0.0047607421875,0,
00:00:05.584,-2.86102294921875E-05,0.00200843811035156,0.00475502014160156,0,
00:00:05.588,-3.4332275390625E-05,0.00199127197265625,0.00474929809570313,0,
00:00:05.592,-2.86102294921875E-05,0.00198554992675781,0.00474929809570313,0,
00:00:05.596,-4.00543212890625E-05,0.00195693969726563,0.00474929809570313,0,
00:00:05.6,-4.57763671875E-05,0.00197982788085938,0.00474929809570313,0,
00:00:05.604,-2.86102294921875E-05,0.00201988220214844,0.00474929809570313,0,
00:00:05.608,-3.4332275390625E-05,0.00203704833984375,0.00474929809570313,0,
00:00:05.612,-4.00543212890625E-05,0.00199699401855469,0.0047607421875,0,
00:00:05.616,-4.00543212890625E-05,0.00199699401855469,0.00475502014160156,0,
00:00:05.62,-4.57763671875E-05,0.00199127197265625,0.00475502014160156,0,
00:00:05.624,-4.00543212890625E-05,0.00200843811035156,0.0047607421875,0,
00:00:05.628,-4.57763671875E-05,0.00199127197265625,0.00474929809570313,0,
00:00:05.632,-2.86102294921875E-05,0.00198554992675781,0.00474929809570313,0,
00:00:05.636,-3.4332275390625E-05,0.00198554992675781,0.00475502014160156,0,
00:00:05.64,-3.4332275390625E-05,0.00198554992675781,0.0047607421875,0,
00:00:05.644,-5.14984130859375E-05,0.00197410583496094,0.00477218627929688,0,
00:00:05.648,-6.866455078125E-05,0.00196266174316406,0.00475502014160156,0,
00:00:05.652,-6.29425048828125E-05,0.00195693969726563,0.00473785400390625,0,
00:00:05.656,-5.14984130859375E-05,0.00198554992675781,0.00473785400390625,0,
00:00:05.66,-3.4332275390625E-05,0.00201988220214844,0.00473213195800781,0,
00:00:05.664,-4.00543212890625E-05,0.00199699401855469,0.00475502014160156,0,
00:00:05.668,-4.57763671875E-05,0.00197982788085938,0.00474929809570313,0,
00:00:05.672,-4.00543212890625E-05,0.00198554992675781,0.00474357604980469,0,
00:00:05.676,-3.4332275390625E-05,0.00199699401855469,0.00474929809570313,0,
00:00:05.68,-2.86102294921875E-05,0.00200843811035156,0.00475502014160156,0,
00:00:05.684,-2.86102294921875E-05,0.00200843811035156,0.0047607421875,0,
00:00:05.688,-3.4332275390625E-05,0.00200843811035156,0.00476646423339844,0,
00:00:05.692,-2.86102294921875E-05,0.00201988220214844,0.00477218627929688,0,
00:00:05.696,-2.86102294921875E-05,0.00203704833984375,0.00476646423339844,0,
00:00:05.7,-4.00543212890625E-05,0.00203132629394531,0.0047607421875,0,
00:00:05.704,-2.86102294921875E-05,0.00203132629394531,0.00476646423339844,0,
00:00:05.708,-3.4332275390625E-05,0.00203704833984375,0.00476646423339844,0,
00:00:05.712,-3.4332275390625E-05,0.00202560424804688,0.00476646423339844,0,
00:00:05.716,-4.57763671875E-05,0.00200271606445313,0.0047607421875,0,
00:00:05.72,-1.1444091796875E-05,0.00204277038574219,0.00474929809570313,0,
00:00:05.724,-2.86102294921875E-05,0.00201416015625,0.00474929809570313,0,
00:00:05.728,-2.86102294921875E-05,0.00200271606445313,0.00477218627929688,0,
00:00:05.732,-4.57763671875E-05,0.00201416015625,0.0047607421875,0,
00:00:05.736,-3.4332275390625E-05,0.00201988220214844,0.00476646423339844,0,
00:00:05.74,-2.288818359375E-05,0.00203132629394531,0.00477218627929688,0,
00:00:05.744,-2.288818359375E-05,0.00204277038574219,0.00477218627929688,0,
00:00:05.748,-2.288818359375E-05,0.00204849243164063,0.00478363037109375,0,
00:00:05.752,-2.288818359375E-05,0.00203132629394531,0.00476646423339844,0,
00:00:05.756,-2.288818359375E-05,0.00203704833984375,0.0047607421875,0,
00:00:05.76,-2.288818359375E-05,0.00204277038574219,0.00476646423339844,0,
00:00:05.764,-1.71661376953125E-05,0.00204277038574219,0.00476646423339844,0,
00:00:05.768,-1.71661376953125E-05,0.00204849243164063,0.00476646423339844,0,
00:00:05.772,-1.71661376953125E-05,0.00203704833984375,0.0047607421875,0,
00:00:05.776,-2.288818359375E-05,0.00201988220214844,0.00476646423339844,0,
00:00:05.78,-2.288818359375E-05,0.00203704833984375,0.00477218627929688,0,
00:00:05.784,-1.71661376953125E-05,0.00207138061523438,0.0047607421875,0,
00:00:05.788,-1.1444091796875E-05,0.00208282470703125,0.00477218627929688,0,
00:00:05.792,-3.4332275390625E-05,0.00204849243164063,0.00477218627929688,0,
00:00:05.796,-4.57763671875E-05,0.00203704833984375,0.00477218627929688,0,
00:00:05.8,-4.00543212890625E-05,0.00202560424804688,0.00478363037109375,0,
00:00:05.804,-2.86102294921875E-05,0.00205421447753906,0.00478363037109375,0,
00:00:05.808,-2.288818359375E-05,0.00208854675292969,0.00477790832519531,0,
00:00:05.812,-3.4332275390625E-05,0.00208854675292969,0.00477790832519531,0,
00:00:05.816,-3.4332275390625E-05,0.00207138061523438,0.00477218627929688,0,
00:00:05.82,-2.288818359375E-05,0.00208282470703125,0.00477790832519531,0,
00:00:05.824,-2.288818359375E-05,0.00208282470703125,0.00477790832519531,0,
00:00:05.828,-3.4332275390625E-05,0.00208282470703125,0.00478363037109375,0,
00:00:05.832,-2.86102294921875E-05,0.00209999084472656,0.00477790832519531,0,
00:00:05.836,-3.4332275390625E-05,0.00208854675292969,0.00478363037109375,0,
00:00:05.84,-3.4332275390625E-05,0.00211143493652344,0.00477790832519531,0,
00:00:05.844,-4.57763671875E-05,0.00211715698242188,0.00477790832519531,0,
00:00:05.848,-4.00543212890625E-05,0.00209426879882813,0.00477218627929688,0,
00:00:05.852,-4.00543212890625E-05,0.00208854675292969,0.00477218627929688,0,
00:00:05.856,-5.14984130859375E-05,0.00207710266113281,0.00477790832519531,0,
00:00:05.86,-4.00543212890625E-05,0.00209426879882813,0.00478935241699219,0,
00:00:05.864,-3.4332275390625E-05,0.002105712890625,0.00479507446289063,0,
00:00:05.868,-3.4332275390625E-05,0.00211143493652344,0.0048065185546875,0,
00:00:05.872,-1.71661376953125E-05,0.00212860107421875,0.00481796264648438,0,
00:00:05.876,-2.288818359375E-05,0.00212860107421875,0.0048065185546875,0,
00:00:05.88,-2.288818359375E-05,0.00212287902832031,0.00482940673828125,0,
00:00:05.884,-2.86102294921875E-05,0.00211143493652344,0.00483512878417969,0,
00:00:05.888,-4.00543212890625E-05,0.002105712890625,0.00482940673828125,0,
00:00:05.892,-3.4332275390625E-05,0.00209426879882813,0.00482940673828125,0,
00:00:05.896,-2.288818359375E-05,0.00213432312011719,0.00481796264648438,0,
00:00:05.9,-1.1444091796875E-05,0.0021514892578125,0.00481224060058594,0,
00:00:05.904,-5.7220458984375E-06,0.00216293334960938,0.00481796264648438,0,
00:00:05.908,-5.7220458984375E-06,0.00216865539550781,0.00481796264648438,0,
00:00:05.912,-1.71661376953125E-05,0.00214004516601563,0.00480079650878906,0,
00:00:05.916,-3.4332275390625E-05,0.00211715698242188,0.0048065185546875,0,
00:00:05.92,-2.288818359375E-05,0.00214004516601563,0.00481796264648438,0,
00:00:05.924,-2.86102294921875E-05,0.00214576721191406,0.00482368469238281,0,
00:00:05.928,-3.4332275390625E-05,0.00214576721191406,0.00481796264648438,0,
00:00:05.932,-3.4332275390625E-05,0.00214004516601563,0.00482368469238281,0,
00:00:05.936,-2.86102294921875E-05,0.0021514892578125,0.00481796264648438,0,
00:00:05.94,-2.288818359375E-05,0.00216865539550781,0.00481796264648438,0,
00:00:05.944,-5.7220458984375E-06,0.00217437744140625,0.00482940673828125,0,
00:00:05.948,-3.4332275390625E-05,0.00214004516601563,0.00484085083007813,0,
00:00:05.952,-4.57763671875E-05,0.00212860107421875,0.00483512878417969,0,
00:00:05.956,-2.86102294921875E-05,0.00214576721191406,0.00483512878417969,0,
00:00:05.96,-2.288818359375E-05,0.00216293334960938,0.00484657287597656,0,
00:00:05.964,-2.288818359375E-05,0.00215721130371094,0.00486373901367188,0,
00:00:05.968,-2.288818359375E-05,0.0021514892578125,0.00486946105957031,0,
00:00:05.972,-1.71661376953125E-05,0.00215721130371094,0.00486946105957031,0,
00:00:05.976,-5.7220458984375E-06,0.00218009948730469,0.00486946105957031,0,
00:00:05.98,-2.288818359375E-05,0.00216865539550781,0.00486373901367188,0,
00:00:05.984,-1.71661376953125E-05,0.0021514892578125,0.00486373901367188,0,
00:00:05.988,-3.4332275390625E-05,0.0021514892578125,0.00486946105957031,0,
00:00:05.992,-2.86102294921875E-05,0.00215721130371094,0.00488090515136719,0,
00:00:05.996,-3.4332275390625E-05,0.00214576721191406,0.00488090515136719,0,
00:00:06,-1.71661376953125E-05,0.00215721130371094,0.00488090515136719,0,
00:00:06.004,-5.7220458984375E-06,0.00219154357910156,0.00488662719726563,0,
00:00:06.008,-1.1444091796875E-05,0.00219154357910156,0.00489234924316406,0,
00:00:06.012,-1.71661376953125E-05,0.00217437744140625,0.0048980712890625,0,
00:00:06.016,-5.7220458984375E-06,0.00218009948730469,0.0048980712890625,0,
00:00:06.02,-2.288818359375E-05,0.00216293334960938,0.00489234924316406,0,
00:00:06.024,-3.4332275390625E-05,0.0021514892578125,0.00490379333496094,0,
00:00:06.028,-1.71661376953125E-05,0.00216865539550781,0.0048980712890625,0,
00:00:06.032,-1.1444091796875E-05,0.00216865539550781,0.00490379333496094,0,
00:00:06.036,-5.7220458984375E-06,0.00216865539550781,0.00490951538085938,0,
00:00:06.04,-1.1444091796875E-05,0.00215721130371094,0.00492095947265625,0,
00:00:06.044,-1.71661376953125E-05,0.00215721130371094,0.00491523742675781,0,
00:00:06.048,-1.1444091796875E-05,0.00216865539550781,0.00492095947265625,0,
00:00:06.052,-1.1444091796875E-05,0.00217437744140625,0.00492668151855469,0,
00:00:06.056,0,0.00217437744140625,0.00493812561035156,0,
00:00:06.06,0,0.00219154357910156,0.00494384765625,0,
00:00:06.064,0,0.00219154357910156,0.00493812561035156,0,
00:00:06.068,0,0.002197265625,0.00494384765625,0,
00:00:06.072,-1.71661376953125E-05,0.00218582153320313,0.00494384765625,0,
00:00:06.076,-2.86102294921875E-05,0.00216293334960938,0.00495529174804688,0,
00:00:06.08,-1.71661376953125E-05,0.00218009948730469,0.00495529174804688,0,
00:00:06.084,-1.1444091796875E-05,0.00218009948730469,0.00495529174804688,0,
00:00:06.088,-5.7220458984375E-06,0.00218582153320313,0.00496673583984375,0,
00:00:06.092,-1.1444091796875E-05,0.00219154357910156,0.00497245788574219,0,
00:00:06.096,-2.86102294921875E-05,0.00216865539550781,0.00497245788574219,0,
00:00:06.1,-2.288818359375E-05,0.00214576721191406,0.00497245788574219,0,
00:00:06.104,-2.288818359375E-05,0.00213432312011719,0.00497245788574219,0,
00:00:06.108,-2.288818359375E-05,0.00212860107421875,0.00497245788574219,0,
00:00:06.112,-1.1444091796875E-05,0.00214576721191406,0.00497817993164063,0,
00:00:06.116,-1.1444091796875E-05,0.00216865539550781,0.00497817993164063,0,
00:00:06.12,-1.1444091796875E-05,0.00216293334960938,0.00497817993164063,0,
00:00:06.124,-1.71661376953125E-05,0.0021514892578125,0.00498390197753906,0,
00:00:06.128,-1.1444091796875E-05,0.00215721130371094,0.00499534606933594,0,
00:00:06.132,-2.288818359375E-05,0.0021514892578125,0.00498390197753906,0,
00:00:06.136,-1.1444091796875E-05,0.00216293334960938,0.0049896240234375,0,
00:00:06.14,-5.7220458984375E-06,0.00216293334960938,0.0049896240234375,0,
00:00:06.144,-5.7220458984375E-06,0.0021514892578125,0.00501251220703125,0,
00:00:06.148,-1.1444091796875E-05,0.00212860107421875,0.00500679016113281,0,
00:00:06.152,-1.71661376953125E-05,0.00215721130371094,0.00501251220703125,0,
00:00:06.156,-1.1444091796875E-05,0.00215721130371094,0.00502395629882813,0,
00:00:06.16,-1.1444091796875E-05,0.00217437744140625,0.00502395629882813,0,
00:00:06.164,-1.1444091796875E-05,0.00218582153320313,0.00502395629882813,0,
00:00:06.168,-1.1444091796875E-05,0.00218009948730469,0.005035400390625,0,
00:00:06.172,0,0.00218009948730469,0.00504112243652344,0,
00:00:06.176,5.7220458984375E-06,0.00218009948730469,0.00504684448242188,0,
00:00:06.18,0,0.00219154357910156,0.00505256652832031,0,
00:00:06.184,-1.71661376953125E-05,0.00218582153320313,0.00504684448242188,0,
00:00:06.188,-5.7220458984375E-06,0.00220298767089844,0.005035400390625,0,
00:00:06.192,-5.7220458984375E-06,0.00219154357910156,0.00505828857421875,0,
00:00:06.196,-1.1444091796875E-05,0.00218009948730469,0.00505256652832031,0,
00:00:06.2,-1.71661376953125E-05,0.00217437744140625,0.00505256652832031,0,
00:00:06.204,-1.1444091796875E-05,0.00218009948730469,0.00505256652832031,0,
00:00:06.208,-1.71661376953125E-05,0.00216293334960938,0.00506401062011719,0,
00:00:06.212,-1.1444091796875E-05,0.00217437744140625,0.00506973266601563,0,
00:00:06.216,-5.7220458984375E-06,0.00220298767089844,0.00506973266601563,0,
00:00:06.22,-1.1444091796875E-05,0.002197265625,0.0050811767578125,0,
00:00:06.224,-1.1444091796875E-05,0.00218009948730469,0.0050811767578125,0,
00:00:06.228,-2.288818359375E-05,0.00217437744140625,0.00509834289550781,0,
00:00:06.232,-1.1444091796875E-05,0.002197265625,0.00510406494140625,0,
00:00:06.236,-1.71661376953125E-05,0.00219154357910156,0.00510406494140625,0,
00:00:06.24,-2.288818359375E-05,0.00218582153320313,0.00510978698730469,0,
00:00:06.244,-1.71661376953125E-05,0.002197265625,0.00509834289550781,0,
00:00:06.248,-2.288818359375E-05,0.00218582153320313,0.00510978698730469,0,
00:00:06.252,-1.71661376953125E-05,0.00219154357910156,0.00511550903320313,0,
00:00:06.256,-1.1444091796875E-05,0.00220298767089844,0.00511550903320313,0,
